1416580489.000000
64.000000
0.000000
0.000000
0.000000
0.000000
0.000000
0.000000
0.000000
0.000000
0.000000
-0.003825
-0.012040
-0.015430
-0.005216
0.021362
0.053119
0.064477
0.026261
-0.076673
-0.235980
-0.414459
-0.558206
-0.632766
-0.646158
-0.654147
-0.738658
-0.968377
-1.362578
-1.888317
-2.462776
-2.978273
-3.366698
-3.629991
-3.846347
-4.138122
-4.612141
-5.300478
-6.159523
-7.048333
-7.753259
-8.134111
-8.202445
-8.156270
-8.318221
-8.987381
-10.276802
-12.083589
-14.049892
-15.653338
-16.556244
-16.797459
-16.856792
-17.485916
-19.354500
-22.686987
-27.181648
-32.008591
-36.075569
-38.703377
-39.982357
-40.835491
-42.649380
-46.608082
-53.063423
-61.397499
-70.131332
-77.460396
-82.307198
-84.847153
-86.520882
-89.409698
-95.227707
-103.748787
-113.907845
-125.249359
-136.915375
-148.000977
-156.767609
-160.479935
-156.493393
-144.163864
-126.206528
-108.206215
-95.699646
-90.540634
-89.253761
-84.168236
-67.199036
-34.015656
13.963638
70.804550
129.429016
185.072906
236.630997
285.145630
331.347809
373.917267
409.590820
434.818726
447.462189
447.580902
436.977539
418.314117
393.757721
364.277771
329.968689
290.672302
246.759979
199.604568
151.513229
105.206970
63.089401
26.520981
-4.383270
-30.466949
-52.957382
-72.839203
-90.483261
-105.639847
-117.729965
-126.258865
-131.187714
-133.026093
-132.643860
-130.975220
-128.718384
-126.184448
-123.325867
-119.912796
-115.738022
-110.775726
-105.212776
-99.356880
-93.514221
-87.887245
-82.540466
-77.426338
-72.456718
-67.566200
-62.739685
-58.012207
-53.431793
-49.044601
-44.871063
-40.918091
-37.181236
-33.640129
-30.298214
-27.161785
-24.234173
-21.516890
-19.009188
-16.711273
-14.623819
-12.739973
-11.049635
-9.552145
-8.234920
-7.081748
-6.082737
-5.219304
-4.476704
-3.843565
-3.308845
-2.852443
-2.471576
-2.152641
-1.887137
-1.664276
-1.478921
-1.320614
-1.188581
-1.077985
-0.982030
-0.902112
-0.830777
-0.772266
-0.718921
-0.675005
-0.629769
-0.594478
-0.562267
-0.535569
-0.514277
-0.501190
-0.495471
-0.497571
-0.511128
-0.532262
-0.564382
-0.608565
-0.659057
-0.719314
-0.784967
-0.860267
-0.939764
-1.020754
-1.103036
-1.188336
-1.277503
-1.370481
-1.469707
-1.576896
-1.689266
-1.817779
-1.952806
-2.100854
-2.257857
-2.433027
-2.622219
-2.827651
-3.054438
-3.302623
-3.578058
-3.874625
-4.199076
-4.554877
-4.957487
-5.397186
-5.893723
-6.446576
-7.066197
-7.762836
-8.503576
-9.314936
-10.194934
-11.145552
-12.170214
-13.259917
-14.436527
-15.685476
-17.028353
-18.404333
-19.837025
-21.326258
-22.866705
-24.488842
-26.181574
-27.970360
-29.837757
-31.788036
-33.678383
-35.463776
-37.010887
-38.158485
-38.679691
-38.313183
-36.884453
-34.165985
-30.039875
-24.279457
-16.950119
-8.188435
1.763275
12.577843
23.888489
35.216976
46.188862
55.900337
64.493668
71.910576
78.144417
83.214325
87.226898
90.315399
92.492920
94.259003
95.430954
96.112839
96.190430
95.465752
93.681435
90.483269
85.925323
79.382050
70.714539
59.965424
47.581783
34.084900
20.082390
6.186260
-7.393349
-19.830894
-30.834091
-40.115330
-47.497139
-52.712597
-55.707474
-56.604424
-55.822231
-53.957615
-51.682636
-49.740479
-48.402252
-47.569031
-46.728867
-45.334160
-43.013462
-39.867924
-36.433037
-33.461803
-31.743805
-31.488020
-32.261452
-33.114563
-33.040913
-31.416668
-28.363949
-24.745518
-21.750614
-20.341022
-20.792761
-22.475254
-24.161119
-24.491451
-22.307995
-16.707146
-7.102128
6.397071
22.217760
37.193478
47.038723
47.912601
38.440094
20.818483
0.328227
-16.842421
-25.920231
-26.039812
-19.795174
-11.424478
-4.457627
-0.229834
2.014940
3.810603
6.082768
8.619828
10.335375
10.273190
8.319909
5.180205
2.093643
0.305914
0.407879
2.190304
4.848857
7.341868
8.833459
9.076879
8.330118
7.187201
6.102674
5.132071
4.236878
3.747855
4.731990
8.826286
17.482170
30.833500
47.417660
64.478943
79.110687
89.465706
95.313469
97.553398
97.167763
94.636276
89.021294
79.281250
65.086899
47.354992
28.131639
9.801637
-5.767189
-17.705164
-25.930750
-31.240141
-34.806480
-37.715446
-40.917786
-45.325768
-51.737335
-60.645077
-71.810997
-84.128036
-95.133347
-101.923347
-102.101013
-94.715881
-80.796715
-62.985519
-44.699142
-29.215622
-19.033936
-15.915688
-20.879509
-33.982590
-53.661530
-75.911255
-94.667976
-103.334503
-97.451775
-76.852692
-46.189049
-13.187546
14.482704
32.209438
39.723423
40.146317
37.630573
35.049789
33.181442
31.187138
28.167229
24.186726
20.270851
17.812449
17.440727
18.632389
19.978500
20.052435
17.979326
14.024879
9.280464
5.137216
2.615303
1.947638
2.478519
3.098409
2.790318
1.070856
-1.765738
-4.866900
-7.217337
-8.079389
-7.304311
-5.306007
-2.823006
-0.579375
1.051389
2.119102
3.015003
4.196775
5.885085
8.020182
10.224895
12.065867
13.211634
13.757534
14.016979
14.350967
15.047306
16.168514
17.574329
18.896164
19.743933
19.863953
19.321386
18.379368
17.328419
16.304869
15.338528
14.561550
14.140568
14.401510
15.411430
17.042990
18.407530
18.007040
14.549053
7.603239
-2.045689
-13.010653
-23.982950
-34.281296
-42.967686
-49.490162
-53.454716
-54.088707
-50.355495
-41.352612
-27.156067
-9.163708
10.273289
29.730659
47.177975
59.565117
64.041374
59.192509
45.688240
25.653103
1.900806
-22.923168
-44.593277
-61.293358
-74.588898
-87.218643
-100.675705
-113.589882
-122.517426
-123.436607
-113.073227
-86.852112
-43.849319
12.402336
76.990143
142.556213
201.313766
245.948059
270.747650
255.315063
198.866470
122.824371
53.888214
6.516285
-19.055157
-29.837383
-33.826889
-36.369221
-39.182346
-38.724144
-32.972595
-24.031097
-16.280781
-13.101368
-15.059437
-20.622093
-27.426174
-33.196377
-34.415649
-30.129875
-22.720097
-15.985851
-12.587578
-13.108074
-16.598808
-21.481640
-26.133007
-27.978680
-26.001411
-21.389446
-16.458420
-13.123768
-12.265648
-13.830463
-17.184330
-21.266335
-24.244007
-24.931759
-23.446095
-20.814751
-18.266342
-16.755142
-16.784027
-18.389084
-21.374908
-25.254242
-29.566608
-33.615295
-35.995991
-34.614029
-27.551868
-14.383087
2.919266
20.418278
33.674629
39.579887
37.638969
29.909683
19.641560
9.743729
1.592903
-5.026642
-10.897339
-16.193893
-20.203865
-21.279129
-17.877327
-9.643677
2.196739
15.116890
26.165886
33.289909
36.095108
35.866364
34.634010
34.061310
34.496651
35.098274
34.754143
33.077095
30.905243
29.772972
30.994972
34.950462
40.967911
47.967575
55.287804
62.832832
70.705170
78.440506
84.596512
87.311073
85.232605
78.364616
68.417496
57.953564
49.162361
42.737877
38.003265
33.000153
26.314152
17.694931
8.120461
-1.049751
-8.882387
-15.482775
-21.741852
-28.597540
-36.343674
-44.297409
-51.102444
-55.500313
-56.915955
-55.650162
-52.841064
-49.875687
-47.948555
-47.979630
-50.270966
-54.592110
-60.007370
-64.969734
-67.598335
-66.354309
-60.517269
-50.656631
-38.418957
-25.898182
-14.820786
-6.079758
0.362514
5.069649
8.514923
10.787167
11.722446
11.460041
10.925900
11.748116
15.698605
23.732845
35.199219
47.746300
58.174095
63.552933
62.549843
55.868843
45.866341
35.492012
27.084381
21.654602
18.972504
18.197861
18.630836
20.241280
23.674538
29.893242
39.639503
52.801353
68.130890
83.345970
95.473984
101.279922
98.187408
83.927246
57.751541
21.058533
-22.499588
-67.714630
-109.023346
-141.961166
-164.207672
-175.866104
-178.901260
-176.044067
-169.717514
-161.710419
-153.168091
-144.950089
-137.874710
-132.495102
-128.681732
-125.419724
-120.872406
-113.136551
-101.047073
-84.756180
-65.620178
-45.755447
-27.281754
-11.734787
-0.015373
7.674835
11.654121
12.654457
11.692390
9.653671
6.832344
2.542274
-4.566177
-15.695786
-30.770180
-47.961838
-63.886757
-74.800941
-77.606712
-70.556114
-52.969711
-24.884716
12.986462
58.727959
108.492920
156.510315
196.292542
222.538956
232.815857
228.115494
212.155304
189.818787
165.724487
143.153427
123.828499
107.891418
94.363724
81.632233
68.269394
53.886845
39.633003
27.943893
21.381611
21.115749
25.888090
32.176231
35.556900
32.588486
22.380707
6.657190
-11.219257
-28.062042
-42.080025
-53.201771
-61.959934
-68.218552
-70.556747
-66.880661
-55.675491
-37.105312
-13.226009
12.931564
38.763809
62.991699
85.529465
106.381828
124.612053
138.035095
144.051300
140.909576
128.793182
109.824364
87.118942
63.583321
41.023880
19.969940
0.164948
-18.748993
-36.795929
-53.606506
-68.715027
-81.922318
-93.428635
-103.704529
-113.117554
-122.000671
-130.516388
-138.671753
-146.166336
-152.492142
-157.113846
-159.653183
-160.033798
-158.469574
-155.066132
-149.434341
-140.603104
-127.196915
-108.036575
-82.695816
-51.770538
-16.849442
19.904221
56.201355
90.112793
120.234055
145.672958
165.831268
180.125031
187.927322
188.798126
183.088638
172.353546
159.427765
147.667358
139.748047
136.567230
136.992950
138.458374
138.272064
134.570587
126.578674
114.300232
98.070923
78.535095
56.830780
34.947968
15.401855
0.427734
-8.778168
-12.596466
-12.830933
-12.058044
-12.796692
-16.863403
-25.232452
-38.160950
-55.502045
-76.956665
-102.139099
-130.468140
-160.926666
-191.664459
-219.871796
-242.081543
-255.005798
-256.625610
-247.061859
-228.563354
-204.623444
-178.699982
-153.021271
-128.302948
-104.198944
-80.188873
-56.210144
-32.771179
-10.630432
9.684479
28.022614
44.374451
58.468842
69.593658
76.627228
78.672058
75.550629
68.252472
58.911713
50.183411
44.308014
42.072296
42.229248
41.674744
36.448090
23.329742
1.318878
-27.797729
-60.006439
-90.385925
-114.845398
-130.975128
-138.246490
-137.345032
-129.391541
-115.516602
-96.773224
-74.467010
-50.391846
-26.796631
-5.986908
10.103821
20.436005
24.974701
24.547485
20.531952
14.307648
6.913055
-1.246277
-10.383789
-21.194855
-34.479584
-50.788147
-70.015747
-91.216339
-112.618134
-132.016998
-147.537079
-158.242249
-164.399399
-167.249542
-168.025681
-167.078232
-163.440002
-155.301376
-141.062866
-120.544495
-95.639542
-70.061325
-48.280190
-34.004272
-29.027092
-32.763702
-42.756573
-55.563881
-67.869492
-77.029587
-81.436485
-80.256325
-73.289093
-60.885048
-43.606339
-21.947048
4.227585
36.191650
76.608749
128.744522
194.794250
273.757324
360.073120
443.875488
513.568481
559.268921
575.863586
564.148743
529.448059
478.618042
417.098999
347.894409
272.749298
194.631653
119.319336
54.797302
8.534607
-15.900452
-20.704987
-12.848785
-1.014008
8.021866
11.417252
10.066483
6.519577
2.634537
-1.626236
-7.721664
-17.040695
-29.513672
-43.468552
-56.564774
-67.341583
-76.165115
-85.068176
-96.562225
-111.813797
-129.325806
-145.075806
-154.129807
-153.034592
-142.040451
-125.570312
-110.733002
-104.338776
-109.970901
-126.705780
-149.837479
-173.363113
-192.421234
-204.381622
-208.340881
-203.923996
-190.527084
-167.828506
-137.293015
-103.066299
-71.471344
-49.005219
-39.712738
-43.630493
-57.202209
-75.473175
-94.536697
-112.867538
-130.677719
-148.014069
-163.018005
-171.804535
-170.261353
-156.532715
-132.314209
-101.937866
-69.680847
-36.963593
-1.808136
39.147736
86.894379
137.224213
180.797546
206.639954
207.235535
182.552521
140.932617
96.326904
63.489288
53.171753
68.721771
105.296783
151.398926
192.275757
214.483704
210.388306
180.827576
134.632507
85.163116
45.367096
23.730774
22.963104
41.562317
76.982727
127.516235
191.722717
266.035706
342.396484
408.772522
452.870911
467.254425
452.717255
417.973785
375.692108
336.882660
306.724487
283.513306
261.423889
234.594055
200.088745
158.485443
112.800385
67.008118
25.071960
-9.407440
-34.170868
-48.097443
-51.429901
-45.997864
-35.332123
-23.990051
-16.312347
-15.391113
-22.718765
-39.496872
-65.610001
-98.969894
-135.226562
-168.936493
-195.293854
-211.547638
-217.854599
-217.273727
-216.350464
-221.819794
-237.657440
-263.279663
-294.060059
-323.306702
-344.638611
-354.031036
-341.979370
-305.597290
-251.283066
-192.481247
-141.382080
-102.815567
-75.054878
-54.108788
-37.078720
-22.988213
-13.272606
-8.828342
-8.506241
-9.338791
-8.415348
-4.517841
1.634197
8.184490
13.502922
15.762135
14.477875
10.822418
7.110062
5.345692
6.088280
8.396366
10.709541
11.778019
10.584587
7.230343
2.927776
-0.500244
-1.696039
-0.494173
2.196465
5.221676
7.773144
9.519440
10.877142
12.775204
16.252460
22.259941
31.057026
42.160168
54.261745
65.202080
72.077026
72.252319
64.495041
49.849731
31.527971
13.762432
0.160704
-7.636737
-10.261065
-9.834739
-8.606959
-7.818821
-7.400370
-6.615317
-4.940911
-2.584355
-0.394645
0.878696
1.059545
0.815900
1.242117
3.322634
7.298048
12.441104
17.444189
20.956810
22.264393
21.612787
20.064072
18.992876
19.572422
22.271030
26.716232
32.069122
37.093872
41.050510
43.871338
46.069038
48.389290
51.439606
55.477600
60.489529
66.273224
72.424118
78.286591
82.617844
83.644722
79.425835
68.500427
50.633175
27.030140
0.182140
-26.889618
-51.409805
-71.398758
-85.986740
-95.168190
-99.582375
-100.121391
-97.750244
-93.304161
-87.550003
-81.078781
-74.339615
-67.761826
-61.678337
-56.333786
-51.837814
-48.201653
-45.306854
-43.015274
-41.211845
-39.798500
-38.659943
-37.533691
-36.100578
-33.954025
-30.764854
-26.396141
-20.887711
-14.418732
-7.201668
0.571434
8.771187
17.284340
25.921730
34.409088
42.437431
49.753357
56.307320
62.329132
68.212173
74.465759
81.525467
89.623856
98.650833
107.906250
116.030228
121.023773
120.724579
113.411743
98.495865
76.811874
50.511932
22.477295
-4.520996
-28.282135
-47.583542
-62.025024
-71.746155
-77.274750
-79.316711
-78.686951
-76.209076
-72.640762
-68.540817
-64.300293
-60.162430
-56.318588
-52.945328
-50.208878
-48.243622
-47.089172
-46.714401
-47.020950
-47.781967
-48.588547
-48.867966
-47.978622
-45.395660
-40.971359
-35.028214
-28.258698
-21.381989
-14.853775
-8.655426
-2.413071
4.366013
11.954712
20.214279
28.626099
36.523804
43.387711
49.080017
53.909149
58.550110
63.871689
70.715286
79.661362
90.652985
102.815918
114.315155
122.627792
125.129776
119.851471
106.254272
85.408188
59.751572
32.397614
6.232193
-16.684219
-35.381714
-49.738312
-60.157867
-67.174423
-71.343842
-73.227676
-73.355118
-72.286591
-70.502960
-68.372360
-66.124405
-63.910583
-61.854248
-60.089569
-58.729797
-57.850647
-57.395630
-57.194855
-56.998230
-56.509033
-55.481506
-53.708893
-51.062195
-47.461853
-42.941406
-37.662903
-31.929901
-26.106445
-20.490723
-15.162262
-9.880646
-4.188629
2.342346
9.856750
18.141968
26.622711
34.663330
41.829956
48.058350
53.662018
59.138916
65.011566
71.737732
79.634949
88.718445
98.493439
107.734650
114.466034
116.293427
111.021027
97.563721
76.465485
50.006836
21.584747
-5.285461
-27.997894
-45.434631
-57.947540
-66.747742
-73.050385
-77.662689
-80.743042
-82.106445
-81.649292
-79.483398
-75.986389
-71.509460
-66.357117
-61.000061
-56.268280
-53.377106
-53.436829
-56.840912
-62.744843
-69.241089
-74.039185
-75.404388
-72.794952
-66.902252
-59.098816
-50.679596
-42.440735
-34.581909
-26.996765
-19.623413
-12.626465
-6.309601
-0.904236
3.628510
7.701538
11.906158
17.010010
23.419006
31.046387
39.267853
47.172302
54.033600
59.573212
64.137833
68.512604
73.543930
79.904922
87.923996
97.458359
107.787811
117.575607
124.875168
127.436356
123.361298
111.660904
92.777878
68.504257
41.547241
14.809967
-9.345490
-29.458130
-44.960648
-56.036880
-63.204361
-67.056000
-68.136230
-66.940842
-64.074600
-60.271667
-56.318756
-52.887512
-50.358078
-48.776886
-47.825058
-47.170074
-46.545944
-45.934723
-45.433060
-45.267609
-45.457169
-45.882233
-46.154236
-45.874527
-44.661301
-42.334427
-38.877747
-34.409637
-29.110229
-23.240891
-17.125183
-11.146957
-5.682190
-0.903015
3.348618
7.540405
12.282227
18.065414
25.034286
32.909134
41.175858
49.326492
57.110748
64.571594
72.036179
79.941696
88.731796
98.605301
109.242889
119.522278
127.535049
130.856583
127.289932
115.581512
96.093994
70.783386
42.759109
15.354462
-8.778244
-28.189285
-42.684280
-52.927704
-59.874832
-64.384933
-67.053894
-68.337326
-68.668976
-68.435425
-67.964188
-67.363937
-66.543549
-65.322250
-63.671036
-61.880203
-60.417221
-59.733795
-60.026199
-61.149185
-62.704849
-64.163208
-64.999939
-64.823334
-63.379425
-60.644089
-56.853683
-52.511444
-48.202530
-44.431686
-41.351852
-38.760422
-36.164154
-33.031693
-29.014984
-24.063812
-18.320526
-12.107529
-5.680405
0.725281
6.908096
12.676788
17.901443
22.603439
27.101349
31.946228
37.804489
45.056656
53.516891
62.381378
70.606110
77.486908
83.113541
88.389359
94.677261
102.999313
113.460571
124.957947
135.524994
142.754913
144.491425
139.216827
126.326904
106.253311
80.463043
51.342758
21.808731
-5.341095
-28.005402
-45.275314
-57.385941
-65.315567
-70.253021
-73.100357
-74.344498
-74.201431
-72.880051
-70.731918
-68.209854
-65.674606
-63.270142
-60.944885
-58.655426
-56.525940
-54.953476
-54.358170
-54.953369
-56.548920
-58.502060
-60.038177
-60.481827
-59.552216
-57.349960
-54.253113
-50.718735
-47.074677
-43.415833
-39.598480
-35.313889
-30.229019
-24.144516
-17.088013
-9.421234
-1.680435
5.517700
11.744629
16.845963
21.131111
25.130852
29.465721
34.521126
40.304878
46.360497
52.016159
56.749214
60.534645
63.989784
68.212357
74.342690
82.965721
93.710136
105.072006
114.720573
120.086472
118.929672
110.019112
93.381989
70.428215
43.714172
16.441521
-8.312592
-28.316765
-42.695015
-51.916306
-57.307434
-60.316864
-61.941193
-62.451637
-61.733543
-59.668953
-56.521286
-52.947449
-49.737732
-47.389832
-46.002670
-45.247162
-44.706444
-44.150894
-43.575462
-43.142456
-42.977966
-43.037003
-42.980560
-42.333115
-40.681480
-37.795158
-33.744682
-28.859497
-23.542721
-18.136326
-12.774162
-7.365242
-1.722481
4.294868
10.726280
17.497368
24.509476
31.735588
39.147846
46.649792
53.984985
60.775768
66.693588
71.685829
76.131813
80.850922
86.813904
94.693077
104.378677
114.683578
123.387047
127.804123
125.590012
115.479813
97.808792
74.473984
48.345997
22.440571
-0.837296
-20.154499
-35.237389
-46.556831
-54.851315
-60.750355
-64.713593
-67.029251
-67.973709
-67.822311
-66.863525
-65.413094
-63.715279
-62.017639
-60.561333
-59.549625
-59.100563
-59.188858
-59.689331
-60.412430
-61.189423
-61.879936
-62.281052
-62.040272
-60.712582
-57.915382
-53.574982
-48.055210
-42.090630
-36.500111
-31.790245
-28.000439
-24.695091
-21.238728
-17.074509
-12.030396
-6.320053
-0.374317
5.449940
11.015266
16.497955
22.223042
28.470798
35.295856
42.506805
49.751476
56.679092
63.033897
68.715866
73.791962
78.515915
83.338692
88.941788
96.023834
105.010605
115.487930
126.048508
134.327316
137.608749
133.680740
121.637009
102.127472
77.232201
49.772320
22.598576
-1.994167
-22.519379
-38.314201
-49.395378
-56.332981
-59.980801
-61.410557
-61.628487
-61.346001
-60.905018
-60.318024
-59.454910
-58.273418
-56.915123
-55.736816
-55.151993
-55.522888
-57.014580
-59.565079
-62.939934
-66.793091
-70.604988
-73.801720
-75.789436
-76.110435
-74.572586
-71.376701
-66.988174
-62.032097
-57.073410
-52.484871
-48.408848
-44.782787
-41.429131
-38.091991
-34.477867
-30.389778
-25.768780
-20.727280
-15.522202
-10.392277
-5.466415
-0.717979
3.957340
8.654018
13.399450
18.159874
23.000362
28.044811
33.438210
39.257942
45.386917
51.519760
57.275543
62.382549
66.921013
71.306526
76.221344
82.367561
90.206177
99.665321
110.050964
119.920258
127.216927
129.750366
125.670258
114.069565
95.370316
71.334831
44.661312
18.255320
-5.483901
-25.133417
-40.260891
-51.193188
-58.615540
-63.242580
-65.630501
-66.268318
-65.552162
-63.856823
-61.580936
-59.129669
-56.859489
-55.049347
-53.834122
-53.202541
-53.002220
-53.018860
-53.104916
-53.159615
-53.100071
-52.830181
-52.150764
-50.732933
-48.296528
-44.771568
-40.353401
-35.558559
-30.963800
-27.024160
-23.820190
-21.072800
-18.270424
-14.910877
-10.756115
-5.895144
-0.762444
4.041969
8.004778
10.930260
13.051502
15.050472
17.786243
21.971066
27.858891
35.057041
42.786591
50.142025
56.536858
61.936623
66.759193
71.630852
77.153305
83.748405
91.582245
100.490234
109.789726
118.105202
123.415802
123.441132
116.455635
102.032898
81.454361
57.330299
32.783745
10.400436
-8.408630
-23.413883
-35.183586
-44.469406
-51.761772
-57.269199
-61.066051
-63.291649
-64.253860
-64.397110
-64.127563
-63.755142
-63.390484
-63.082680
-62.869301
-62.851559
-63.178593
-63.990021
-65.225517
-66.635475
-67.752632
-68.116638
-67.473663
-65.864883
-63.499519
-60.614712
-57.246899
-53.294964
-48.618233
-43.266132
-37.463947
-31.590878
-26.025848
-20.972031
-16.423332
-12.291073
-8.349609
-4.424759
-0.370193
3.877335
8.305435
12.829960
17.354462
21.923714
26.704391
31.943924
37.812981
44.259140
50.967712
57.423477
63.193192
68.053329
72.138664
75.863663
79.872673
84.863998
91.419632
99.747253
109.350616
118.815376
125.920906
128.069031
123.180000
110.478455
90.837135
66.639244
41.046791
16.993683
-3.492729
-19.642891
-31.715416
-40.535034
-46.976578
-51.652901
-54.877205
-56.808380
-57.580238
-57.484619
-56.916771
-56.306915
-55.926735
-55.872498
-56.070175
-56.406479
-56.889893
-57.699730
-59.071106
-61.037552
-63.354752
-65.455734
-66.698669
-66.616646
-65.045494
-62.217873
-58.557266
-54.499329
-50.264862
-45.889328
-41.346062
-36.739075
-32.288422
-28.314064
-25.020668
-22.298813
-19.732750
-16.830414
-13.197838
-8.841095
-4.125351
0.414734
4.388199
7.789597
11.035393
14.682343
19.133354
24.448158
30.352196
36.454491
42.478119
48.347191
54.204636
60.299507
66.912811
74.308136
82.767822
92.488678
103.303665
114.416809
124.161041
130.281433
130.510315
123.305634
108.488480
87.347488
62.302292
36.181198
11.538162
-9.860229
-27.159164
-40.261398
-49.537369
-55.506989
-58.676971
-59.483749
-58.355453
-55.797455
-52.401825
-48.869415
-45.826050
-43.703827
-42.606262
-42.361832
-42.639893
-43.221695
-44.016937
-45.059418
-46.363541
-47.722702
-48.755371
-48.983536
-48.112488
-46.190720
-43.585876
-40.851486
-38.413834
-36.349884
-34.349792
-31.880859
-28.496872
-24.075607
-18.793076
-13.059006
-7.304626
-1.799515
3.344833
8.193787
12.930420
17.787399
23.036972
28.913193
35.473984
42.547089
49.696869
56.399185
62.340088
67.621475
72.805786
78.733612
86.086716
95.029999
104.892776
114.111542
120.577530
122.123611
117.226440
105.567261
88.166458
67.120636
44.949219
23.911728
5.488159
-9.749756
-21.871490
-31.262756
-38.318298
-43.427795
-46.972473
-49.416763
-51.184402
-52.603973
-53.823196
-54.769760
-55.389496
-55.733582
-55.991409
-56.400162
-57.170731
-58.436638
-60.146622
-62.143585
-64.156448
-65.848373
-66.798882
-66.645447
-65.173866
-62.352982
-58.413574
-53.748779
-48.745415
-43.683983
-38.592331
-33.265785
-27.395920
-20.774559
-13.486565
-5.952522
1.259117
7.675331
13.196609
18.120094
22.954315
28.246338
34.508011
41.862991
50.082069
58.321991
65.677498
71.629288
76.365150
80.698692
86.014420
93.857780
105.143417
119.325836
133.856995
144.912048
148.714294
142.993073
127.629745
104.882858
78.891747
54.131683
34.333290
20.986031
13.967567
12.095947
13.263992
14.082817
11.914192
7.367043
5.471878
14.450489
40.154739
83.110085
136.789780
188.549973
222.541382
227.365524
201.793930
154.624130
99.827942
46.435829
-1.638021
-43.661049
-79.399002
-109.663162
-134.216110
-151.772858
-161.710068
-164.338791
-165.501801
-168.940369
-173.252686
-174.532806
-173.884247
-178.115936
-196.451202
-235.543091
-294.472107
-370.503540
-453.947601
-530.532715
-561.713074
-519.891663
-411.554016
-275.759277
-168.519684
-92.578506
-39.460857
-0.543079
30.962196
54.988289
67.569763
66.258698
54.752789
43.485378
46.508091
68.534523
107.864510
158.768784
205.992828
233.500519
233.805908
211.504730
176.924728
139.128876
97.816330
50.842148
3.687866
-42.580666
-84.506393
-118.263153
-141.390091
-153.482452
-155.061218
-149.726242
-140.788483
-130.210739
-119.611877
-109.208954
-99.521286
-91.293976
-84.599899
-77.491302
-67.598877
-51.616272
-26.523895
8.169250
51.289673
99.289185
147.271362
190.719238
227.156219
255.987976
278.286285
295.671631
308.658722
317.348877
320.823853
317.850677
308.033936
292.627228
274.500885
256.847809
241.753387
229.162567
217.617737
205.078583
190.066650
172.310303
152.487701
131.371704
109.057526
84.857788
57.882477
28.011597
-3.671417
-35.158966
-64.370880
-90.054871
-112.168915
-131.519745
-149.013153
-165.038605
-179.271637
-190.942932
-199.373169
-204.312256
-206.019653
-204.997864
-201.688782
-196.377411
-189.177734
-180.282104
-169.942291
-158.144516
-144.241333
-126.811981
-104.149429
-75.266418
-40.823959
-3.218613
34.268890
68.917358
99.749115
127.541855
153.707199
178.841812
201.819901
220.155594
231.368332
234.459152
230.577484
222.586182
213.792450
206.834839
203.080139
202.764771
205.394104
210.045197
215.289474
219.011108
218.501038
211.026855
194.761932
169.730789
138.069260
103.515900
70.107719
40.829865
16.648249
-3.430676
-21.605434
-40.061588
-59.942215
-81.059525
-102.161514
-121.675529
-138.373001
-151.534088
-160.877411
-166.317276
-167.895432
-166.010406
-161.578812
-155.949020
-150.549942
-146.309082
-143.343414
-140.992798
-138.351074
-134.733429
-129.916046
-124.126495
-117.878937
-111.688049
-106.095764
-101.629395
-98.671875
-97.154114
-96.462891
-95.434387
-92.815918
-87.731293
-79.963379
-69.973206
-58.502930
-46.306732
-34.045715
-22.318878
-11.755707
-2.822571
4.507385
10.984039
18.142792
27.695892
40.772552
57.151337
74.912537
90.805298
101.260071
103.613831
97.020844
82.758636
63.641907
42.954254
23.300537
5.904633
-9.473816
-24.116486
-39.517181
-56.635071
-75.353516
-94.405670
-111.636475
-124.701599
-131.772156
-132.295685
-127.236420
-118.746796
-109.365448
-100.923462
-93.906555
-87.429443
-79.982605
-70.490326
-58.887512
-46.188354
-33.714355
-22.349487
-12.003479
-1.839355
9.188873
21.860138
36.554352
53.478516
72.796448
94.555908
118.309448
142.964294
167.025391
189.003754
207.953308
223.472137
235.223541
242.345734
243.351379
236.632324
221.511047
199.046082
172.118530
144.565857
119.760864
99.375732
82.947205
68.359497
52.878113
34.200195
10.880432
-17.674805
-51.470154
-89.922913
-131.460571
-173.280334
-211.582642
-242.681091
-264.489624
-277.463196
-284.268127
-288.047607
-290.465454
-290.743530
-286.363098
-275.144775
-257.277832
-235.816650
-215.352356
-199.516479
-188.873901
-180.672485
-170.518372
-155.077942
-133.901611
-109.398926
-84.943665
-62.520874
-41.585449
-19.726440
5.131836
32.753296
59.962769
81.904663
94.398376
96.092896
89.125549
78.123413
68.221008
63.092041
64.119507
70.688354
81.223328
94.240234
108.836212
124.616730
141.241638
158.062317
174.096161
188.486633
201.030151
212.504303
224.258423
237.310608
251.331238
264.143524
272.228546
272.095947
261.883484
242.390686
217.006714
190.413208
166.964233
149.396484
138.385071
132.916443
131.073792
130.776428
130.040161
127.239319
121.471069
113.314026
105.382507
101.973328
107.555603
124.433472
150.817627
180.639709
205.450623
217.553955
212.821350
191.878601
159.256958
121.205933
83.261108
48.768127
18.527710
-8.512207
-34.492859
-61.734131
-92.331116
-127.825928
-168.938354
-215.672363
-267.713074
-324.881836
-387.173828
-453.995972
-522.791138
-587.924072
-640.867798
-672.043091
-673.841797
-643.347046
-583.509399
-502.137817
-409.214355
-313.604370
-221.310059
-135.139404
-55.753784
16.914917
83.244263
144.475220
203.465454
264.513062
331.477295
405.007080
480.566406
548.682983
597.783081
618.589600
607.734253
568.966064
511.144897
444.399170
376.373291
310.432617
246.242676
181.777710
115.526978
47.563110
-20.491211
-86.285400
-147.733765
-203.608398
-253.741455
-298.821777
-340.027466
-378.340210
-414.404907
-448.563721
-480.938354
-511.510376
-539.993530
-565.443237
-586.089111
-599.539185
-603.524048
-596.851562
-580.052856
-555.257812
-525.552490
-493.859863
-462.243896
-431.683350
-402.525269
-374.960083
-349.412109
-326.433350
-306.360718
-289.030762
-273.843384
-260.278931
-248.385010
-238.711182
-231.674194
-226.617249
-221.119812
-211.265869
-192.854919
-162.929443
-120.913086
-68.726562
-10.039429
51.072998
111.253296
168.286438
221.208923
270.072205
315.803467
360.107300
405.443115
454.725525
510.241608
572.110962
636.821655
697.099365
743.367188
766.829590
762.645630
731.878540
681.015015
619.299927
555.197510
493.597626
435.054047
377.117218
316.851440
252.925858
186.450012
120.373596
58.009918
1.760620
-47.562653
-90.386719
-127.683929
-159.942627
-186.670547
-206.663879
-218.771942
-222.731339
-219.552307
-211.226837
-199.889618
-187.004501
-172.946091
-157.201279
-138.960388
-117.634651
-93.169746
-65.918320
-36.614746
-6.572235
22.239914
47.106606
65.178116
74.531639
75.137863
69.087273
59.931358
51.211067
45.165604
42.202278
41.244274
40.643703
39.063896
35.802338
30.586666
23.248413
13.661842
1.927715
-11.292881
-24.555367
-35.795494
-43.023350
-45.131538
-42.830845
-38.763153
-36.931622
-41.391750
-54.594692
-76.446625
-104.268936
-133.972046
-161.622925
-184.407867
-200.836578
-209.886719
-210.356537
-200.780746
-180.263138
-149.525970
-111.491180
-70.688698
-31.728142
2.114426
29.550339
50.995758
67.654129
80.715622
91.065445
99.587051
107.465500
116.171387
126.934418
140.181366
155.362122
171.513000
188.046204
205.428177
224.847122
247.034424
270.970093
293.039429
307.701233
309.177551
293.424744
259.432861
209.103851
146.410675
76.215027
3.744507
-65.574463
-126.127228
-172.734131
-201.788239
-212.420319
-206.898651
-189.875885
-166.827850
-142.367035
-119.371124
-98.843262
-80.593323
-63.992065
-48.401489
-33.406311
-18.745789
-4.221252
10.302582
24.814819
39.048065
52.250885
63.172913
70.275726
72.302155
69.109863
62.117920
54.184845
48.661896
48.033569
52.783539
61.111603
69.774597
75.414398
75.831482
70.561401
60.712982
48.142517
34.677368
21.669220
10.038788
0.566254
-6.079712
-9.435730
-9.666229
-7.993286
-6.689545
-8.428406
-15.466370
-28.592102
-46.600464
-66.475159
-84.346893
-96.854340
-101.999756
-99.417938
-89.679123
-73.383652
-50.720795
-21.550629
13.877991
54.357254
97.553192
140.239914
178.975723
210.811859
233.654907
246.675598
250.503799
247.221039
239.836273
231.245743
223.088303
214.907959
204.285706
187.962006
163.605743
131.272049
93.851479
56.274376
23.653740
-0.704224
-16.703362
-27.388813
-37.508739
-51.341808
-70.699249
-94.428162
-119.325394
-142.009598
-160.652542
-175.490891
-188.123230
-200.051773
-211.606476
-221.859528
-229.514832
-233.894135
-235.438309
-235.330292
-234.532227
-233.207123
-230.674957
-225.888428
-217.916550
-206.297699
-191.211700
-173.384354
-153.784332
-133.286118
-112.572777
-92.146713
-72.363487
-53.229679
-34.610577
-16.509960
0.753819
16.390938
29.862480
40.672283
48.319103
52.376358
52.683342
49.503494
43.406441
35.167294
25.780493
17.496719
12.272199
10.422146
10.459105
10.245174
8.287777
4.111118
-1.785763
-8.628365
-13.737625
-15.587036
-15.572472
-17.422859
-24.144066
-36.144867
-51.383575
-66.747993
-79.672104
-85.099915
-79.934677
-65.661728
-47.588928
-31.126953
-19.068680
-11.600967
-7.272964
-3.704880
7.038422
32.807434
76.839615
136.957611
209.148453
290.155243
377.676208
469.984131
533.672363
543.484314
500.842804
430.321716
353.792297
277.810913
200.143845
119.100723
37.781494
-36.993439
-93.426666
-123.884308
-130.220673
-122.452042
-111.612198
-104.153992
-101.287842
-101.402588
-102.751434
-101.214035
-94.442627
-83.802490
-73.265808
-65.878418
-61.903008
-59.716217
-57.768204
-55.559288
-51.305542
-44.010757
-34.580132
-25.477676
-18.578941
-14.066681
-10.959190
-8.208950
-5.238949
-0.958420
5.048481
11.963715
17.969561
21.429203
21.675220
18.994598
14.074154
8.023775
2.286212
-2.505536
-6.540478
-10.854601
-16.566338
-24.234280
-33.513451
-43.366653
-51.941605
-57.715611
-59.964104
-59.116463
-56.517464
-53.896275
-52.884789
-54.791660
-60.733330
-70.678391
-83.299347
-95.502701
-102.697815
-100.108368
-85.011368
-58.493919
-24.316341
8.406326
32.107422
43.428429
43.921909
38.236626
31.155548
25.348839
20.853870
16.446297
11.220741
6.173332
3.278042
4.106323
8.632435
15.120064
20.967625
23.784515
22.713615
18.479813
13.535324
10.569283
11.278679
15.641106
21.952446
27.681828
30.634315
29.931824
26.224125
21.598789
18.381039
18.114105
21.185200
26.919441
33.983856
40.552376
44.446518
43.310154
35.279480
19.822033
-1.475430
-25.031006
-46.422085
-61.662827
-69.064346
-69.697350
-66.765701
-63.796074
-63.002872
-64.474365
-66.716469
-67.966843
-67.352921
-65.384918
-63.229458
-61.698032
-60.381767
-57.859375
-52.516640
-43.755772
-32.532318
-20.838276
-10.802280
-3.172245
2.492962
7.585075
13.523098
21.089947
30.240814
40.115223
49.119534
55.010773
55.454899
48.793983
35.235771
17.383741
-0.328049
-13.388721
-19.019701
-17.292719
-10.652826
-2.123642
6.443789
15.103078
25.186441
37.602310
51.646446
64.778305
73.676590
75.786827
70.358803
58.514114
42.635277
25.417271
9.210917
-4.347574
-14.408272
-20.738068
-23.606485
-23.591019
-21.433969
-17.820637
-13.321959
-8.498484
-3.947776
-0.215925
2.316926
3.605653
4.074534
4.181364
4.295665
4.420478
4.263160
3.488305
2.020978
0.150247
-1.483560
-2.287730
-1.963096
-0.511736
1.780198
4.450559
7.065310
9.343365
11.247437
12.927383
15.049707
17.976654
21.835457
26.455723
31.363878
36.011517
39.980015
43.170414
45.937206
49.039402
53.384060
59.808228
68.685410
79.488632
90.632767
99.648163
103.886734
101.407333
91.770721
76.331200
57.846336
39.451607
23.625999
11.459747
2.651665
-3.893791
-9.099297
-12.980202
-14.521843
-12.181396
-4.880066
7.028107
21.525482
35.537598
46.135651
51.894241
53.566544
53.691315
55.306183
60.573135
69.984039
82.425766
96.028793
108.831696
119.023621
124.620056
123.500214
113.964508
95.601837
69.807800
39.168732
5.830322
-30.296295
-72.060699
-123.548645
-187.114685
-260.480316
-335.890289
-402.291840
-449.461609
-471.975586
-470.894806
-452.322845
-423.877808
-391.172363
-356.250793
-318.569550
-277.339600
-233.603058
-190.695038
-153.147644
-124.597229
-106.314728
-97.067963
-94.043610
-94.012878
-94.277084
-92.850571
-88.432495
-80.243896
-68.130249
-52.618698
-34.821014
-16.015503
2.682861
20.507278
36.773689
50.412369
59.805031
63.144436
59.393288
49.228989
35.381191
22.171673
14.057519
13.955236
22.159584
36.466183
53.301197
69.390938
83.073059
94.512833
104.927261
115.427658
126.131050
136.089142
143.957138
148.976654
151.558350
153.251495
156.058655
161.583923
170.369125
181.770477
194.233887
205.827499
214.694061
219.306778
218.548843
211.783600
199.054535
181.118988
159.444794
135.961151
112.650665
91.104034
72.268799
56.417725
43.353851
32.628021
23.684052
15.852417
8.461670
0.979736
-6.836121
-14.819702
-22.500809
-29.384369
-35.083664
-39.457428
-42.605713
-44.722870
-45.989014
-46.581924
-46.712967
-46.654068
-46.666397
-46.892868
-47.314743
-47.669479
-47.629761
-46.974976
-45.736877
-44.190033
-42.643646
-41.290253
-40.102341
-38.890106
-37.481033
-35.813995
-34.014648
-32.302673
-30.766815
-29.335083
-27.711807
-25.527939
-22.525116
-18.654251
-14.059784
-9.137527
-4.357178
-0.134903
3.305832
6.011017
8.336212
10.761200
13.779526
17.638947
22.262100
27.349365
32.469131
37.297180
41.701233
45.774078
49.752380
53.974777
58.793564
64.557816
71.369537
78.944092
86.289825
91.818375
93.675613
90.254135
80.867386
66.062469
47.542740
27.605698
8.555084
-7.924423
-20.878052
-30.080063
-35.786255
-38.476837
-38.802521
-37.470871
-35.248901
-32.847672
-30.873825
-29.686722
-29.444122
-30.094849
-31.433975
-33.153183
-34.942154
-36.574722
-37.959305
-39.168640
-40.327881
-41.443329
-42.332809
-42.622314
-41.948975
-40.143066
-37.406784
-34.207733
-31.145874
-28.669174
-26.846390
-25.477493
-24.139297
-22.454742
-20.175156
-17.273239
-13.845291
-10.055191
-6.047119
-1.977112
1.941925
5.453522
8.313004
10.458893
12.056793
13.489731
15.241714
17.671677
20.926285
24.891693
29.286804
33.868011
38.543045
43.416794
48.772385
55.035690
62.404724
70.792709
79.527100
87.242081
92.122177
92.363419
86.759216
75.171326
58.718430
39.388336
19.466118
0.927391
-14.905396
-27.467911
-36.790489
-43.224701
-47.207451
-49.192078
-49.668549
-49.032928
-47.653114
-45.812431
-43.755333
-41.710808
-39.866310
-38.408028
-37.469162
-37.130692
-37.367142
-38.080147
-39.124588
-40.252098
-41.199852
-41.744995
-41.627617
-40.664963
-38.774094
-35.961884
-32.469460
-28.686836
-24.992172
-21.653397
-18.668373
-15.741119
-12.548576
-8.805779
-4.520859
0.086220
4.687447
9.083412
13.285034
17.525505
22.189133
27.672306
34.303204
42.276424
51.570843
61.885296
72.718338
83.535446
93.933846
103.965775
114.175430
125.515945
138.937347
154.659119
171.628906
187.521545
199.295410
204.199966
200.645874
188.303833
167.712143
139.644135
104.919823
64.849487
21.760975
-20.769329
-58.684086
-88.615875
-108.883759
-119.709213
-122.570396
-119.246712
-111.538628
-101.695801
-93.225655
-90.792786
-98.868309
-119.714058
-151.757156
-189.573761
-225.839813
-254.299286
-272.080475
-280.231812
-282.254883
-281.629608
-280.027649
-276.892059
-270.535461
-259.914307
-245.501877
-229.009064
-212.118423
-195.376663
-177.934784
-158.379578
-135.964554
-111.360161
-86.315033
-62.710289
-41.545948
-22.659409
-5.268557
11.287855
27.008724
41.434414
54.170570
65.316925
75.520416
85.579704
95.986877
106.677345
117.316933
127.518089
137.088257
145.965820
153.892838
160.428467
164.999405
167.264557
167.483643
166.487305
165.382751
165.088455
166.007950
167.848434
169.743958
170.381851
168.372818
162.412140
151.595505
135.708481
115.529694
92.696777
69.399628
47.846436
29.581924
15.134872
4.065125
-4.649948
-12.022141
-18.597061
-24.385223
-29.118774
-32.571472
-34.904175
-36.537720
-37.975418
-39.513779
-41.142029
-42.711044
-44.228210
-45.952209
-48.278778
-51.349274
-54.847092
-58.008469
-60.062805
-60.557343
-59.632324
-57.810379
-55.540985
-52.896927
-49.644257
-45.447830
-40.231125
-34.423950
-28.740402
-23.984970
-20.646927
-18.811584
-18.085144
-17.787384
-17.084747
-15.083923
-10.862610
-3.729523
6.263824
18.203583
30.396851
40.543976
46.459900
46.653259
40.946564
30.968323
19.511261
9.352234
2.137817
-2.066345
-4.543365
-6.556793
-8.301788
-8.408020
-4.077728
6.974030
24.564606
45.729248
66.146973
81.612183
90.040070
91.261414
86.297333
77.891449
68.824707
61.088409
56.526306
57.650055
65.887787
81.168671
99.391754
113.130829
117.255951
109.319977
88.974396
57.951202
20.083862
-21.496521
-62.806290
-101.530823
-135.979004
-159.387756
-164.597092
-149.842361
-119.902054
-82.993179
-49.803299
-25.904816
-13.477600
-10.629578
-6.038940
13.012512
52.196533
109.268692
178.855499
253.532913
331.801880
413.319580
461.958191
452.631500
392.700226
311.999481
233.327148
179.956421
136.514130
93.738480
48.168800
-0.131065
-48.785255
-89.610558
-118.528999
-135.817032
-142.330948
-140.590775
-129.414062
-109.989014
-86.112854
-58.117176
-25.162119
10.916946
46.596184
79.505753
106.954514
129.586456
146.502411
155.120804
155.249939
148.050934
133.376160
110.337914
78.788742
38.297852
-8.907990
-60.113739
-111.448547
-155.962555
-185.475616
-194.552734
-182.330017
-152.296417
-111.541473
-67.054382
-24.922516
10.660675
37.584290
54.808472
60.795197
53.775085
32.882233
-1.024841
-44.344360
-91.702026
-137.008484
-174.982483
-202.324036
-218.448425
-225.038818
-224.889832
-220.765808
-214.637512
-207.787415
-201.044373
-195.108215
-190.366150
-186.470215
-182.169128
-175.807373
-166.497375
-154.731140
-142.390442
-131.527527
-123.115051
-116.432068
-109.785828
-101.783386
-92.461487
-83.320312
-76.241882
-72.188049
-70.480408
-69.103088
-65.821899
-59.274414
-49.644287
-38.351746
-27.096985
-17.021301
-8.257996
-0.128784
8.316467
17.705322
28.150452
39.346191
50.876343
62.453674
73.739929
84.028992
91.972717
95.898712
94.226379
86.255737
72.617126
55.135132
36.257507
18.342987
3.067444
-8.746979
-17.065887
-22.519043
-26.142731
-29.147003
-32.692383
-37.518616
-43.882324
-51.569275
-60.129242
-69.154846
-78.377716
-87.537231
-96.353363
-104.419373
-111.401001
-117.146484
-121.752380
-125.256836
-127.488647
-127.985535
-126.087738
-121.272034
-113.486633
-103.030426
-90.590546
-76.969788
-62.967255
-49.236771
-36.308960
-24.370636
-13.295090
-2.572495
8.459686
20.320221
33.163315
46.884537
61.175934
75.875137
91.108185
107.098755
124.144043
142.425293
161.989334
182.757782
204.364624
226.077271
246.649460
264.637268
278.605988
287.874207
292.688354
294.077423
293.469971
292.141052
290.829285
289.864777
289.430115
289.775085
290.981628
292.559723
292.861969
289.187744
278.382507
257.980438
227.082947
186.720169
139.237823
87.535782
34.307114
-18.107910
-67.434860
-111.180740
-146.713196
-171.944687
-186.225861
-190.784317
-188.409912
-182.361008
-175.213715
-168.089874
-160.960968
-153.267181
-144.702972
-135.616394
-126.722351
-118.565338
-111.136444
-103.837616
-95.914703
-86.982574
-77.433655
-68.138550
-59.944397
-53.104248
-47.081024
-40.859283
-33.545532
-24.866425
-15.305237
-5.772522
3.024506
11.107483
19.098938
27.790833
37.475250
47.617889
56.994080
64.068451
67.605408
66.943787
62.099609
53.701721
42.832611
30.871094
19.275818
9.236023
1.350525
-4.363831
-8.155518
-9.850647
-8.594116
-2.894592
8.446411
25.307861
45.699585
66.043579
82.220947
90.949402
90.788391
82.299561
67.675598
49.929871
32.053345
16.440613
4.352661
-4.319824
-11.014832
-18.058105
-27.731689
-41.367126
-58.806152
-78.506409
-98.165161
-115.494385
-128.906982
-137.757568
-142.211792
-143.039551
-141.287476
-138.197876
-135.026245
-132.854065
-132.212891
-132.974121
-134.235046
-134.611694
-132.746521
-127.712036
-119.383179
-108.338013
-95.626648
-82.310730
-69.036194
-55.842224
-42.227905
-27.433228
-10.781921
7.775085
27.322998
45.617859
59.307068
64.767700
59.439880
43.105164
18.532776
-9.085571
-33.741333
-50.481567
-56.805481
-53.090515
-41.829407
-26.439880
-10.087585
4.953857
17.613708
27.818970
36.177551
43.659607
51.070312
58.717468
66.003723
71.682434
74.250366
72.542419
66.202942
55.675781
41.992493
26.259644
9.382446
-8.155457
-26.056580
-43.976562
-61.195068
-76.307861
-87.459595
-92.787109
-91.183167
-82.897705
-69.642090
-54.267395
-39.676025
-27.935120
-19.840149
-15.175903
-13.404541
-14.360046
-18.485291
-26.481018
-38.842529
-55.337952
-75.005737
-96.226074
-117.189514
-136.191467
-152.011353
-164.192871
-172.995544
-179.146179
-183.419800
-186.204346
-187.381592
-186.796204
-184.749634
-182.445435
-181.801208
-184.643494
-191.713562
-201.907715
-212.343506
-218.984924
-217.625366
-204.991364
-179.451538
-141.463867
-93.594849
-40.154388
13.913452
64.486938
109.694977
150.513550
190.156311
232.410095
279.598633
331.374634
384.755585
435.592377
480.007660
515.551758
541.213013
556.869934
562.565918
558.220032
543.896851
520.170349
488.319214
450.021637
407.012207
360.639313
311.857544
261.312866
209.449341
156.617035
103.024963
48.897064
-5.184357
-57.657471
-105.599670
-145.089722
-172.288452
-184.981567
-183.862915
-172.827850
-157.919861
-145.236267
-138.910095
-139.918640
-146.507111
-155.374847
-163.550690
-169.401886
-172.905334
-174.860199
-176.035797
-176.440704
-175.285492
-171.460815
-164.082947
-153.016937
-139.004272
-123.260193
-106.858826
-90.326263
-73.354553
-55.151520
-35.053986
-12.979187
10.278870
32.886169
52.175629
64.925903
67.866486
58.649628
36.759735
4.190643
-34.805573
-74.734039
-110.429810
-138.235321
-156.535583
-165.301239
-165.307617
-157.344788
-141.986023
-119.627228
-90.719513
-55.956573
-16.361572
26.625427
70.916107
113.852783
152.440826
184.019714
207.144226
221.832825
229.453278
231.878540
230.476196
225.501099
216.180481
201.248199
179.750793
151.679413
117.964844
80.191132
40.102722
-0.817017
-41.434540
-80.845520
-118.149902
-152.344727
-182.197418
-206.260620
-222.928955
-230.651672
-228.335724
-215.778076
-193.991547
-165.251556
-132.856293
-100.720612
-72.895538
-53.100922
-44.134216
-47.267822
-61.512390
-83.459473
-107.852783
-128.950653
-142.376831
-146.585876
-143.095032
-135.539825
-127.877899
-122.557770
-119.732574
-117.577759
-113.482056
-105.443695
-92.899994
-76.744934
-58.576355
-39.807343
-21.023560
-2.069733
17.599487
38.189575
59.287109
79.857819
98.761841
115.317673
129.640274
142.378555
154.098190
164.909576
174.264664
181.518143
186.518936
189.827988
192.252029
193.963028
193.807983
189.460571
178.596268
160.330978
136.278656
110.368118
87.575195
72.106796
65.979919
68.843903
78.632309
92.581512
107.695755
120.651375
127.310585
122.736412
102.443390
64.227165
9.977425
-53.985992
-118.382652
-173.993744
-214.491333
-237.989471
-246.552582
-244.049973
-234.114319
-218.954803
-199.681503
-177.423676
-154.080231
-132.148682
-113.787766
-99.842720
-89.306175
-79.936852
-69.229942
-55.576664
-38.737404
-19.529106
0.692299
20.654163
39.394054
56.175415
70.161972
80.297935
85.473694
84.970345
78.877068
68.315147
55.200970
41.616829
29.438547
19.852043
13.470018
10.708565
12.003242
17.765171
27.848209
40.861885
53.844994
62.764999
63.736725
54.793343
37.243538
15.681091
-3.178841
-12.903542
-9.674774
6.232819
30.587524
56.834160
78.439560
90.784050
92.055817
83.037262
66.319115
45.314880
23.552811
4.221504
-10.310013
-19.015900
-22.564941
-23.459976
-25.142395
-30.688782
-41.411591
-56.271515
-72.282455
-86.010696
-95.136353
-99.262405
-99.718811
-98.502731
-97.099091
-95.830734
-94.039932
-90.824509
-85.689911
-78.827072
-70.800034
-62.216293
-53.480652
-44.870590
-36.789612
-29.797089
-24.597748
-21.663147
-20.988342
-22.028473
-23.900330
-25.802429
-27.193115
-27.973938
-28.293152
-28.347473
-28.213043
-27.809296
-26.931824
-25.535217
-23.684967
-21.630554
-19.666748
-17.848358
-15.871063
-13.044312
-8.450043
-1.060913
9.936768
25.015167
44.088257
66.375763
90.411011
114.287170
136.118713
154.625305
169.651917
182.231140
193.945801
205.743042
216.892029
224.692749
225.424438
216.159729
196.437805
168.917236
138.329590
109.379578
84.656860
63.819824
44.453369
23.998596
1.608032
-21.310364
-42.016113
-58.070068
-68.795044
-75.352356
-79.683105
-82.944702
-84.647339
-82.852112
-75.499207
-61.826721
-43.017822
-21.757874
-0.982117
17.283264
32.389648
44.499451
53.800842
59.923523
62.109436
59.988525
54.237366
46.622681
39.298462
33.780396
30.455933
28.595093
27.063232
25.020203
22.151794
18.602173
14.576477
10.188660
5.395996
0.397888
-4.345703
-8.097351
-10.105835
-9.875183
-7.221313
-2.323853
4.396240
12.239319
20.381042
28.013794
34.788269
41.016022
47.778809
56.538269
68.456451
83.848755
101.760315
120.338074
137.489197
151.761566
162.796570
171.313446
178.557922
185.367493
191.709900
196.516266
198.117737
194.990601
186.378052
172.669495
155.288177
136.216034
117.099182
98.509338
79.564667
58.024414
31.030090
-3.871918
-47.808105
-100.074036
-158.230347
-218.690659
-277.284821
-329.648865
-371.671997
-399.881836
-412.182800
-408.533142
-391.442078
-365.375061
-335.660400
-306.852875
-281.663147
-260.622375
-242.683685
-226.236725
-210.009476
-193.383560
-176.378036
-159.220901
-142.076447
-125.034500
-108.137802
-91.496384
-75.384247
-60.169922
-46.293015
-34.091324
-23.679062
-14.799896
-6.820404
1.101746
9.811905
19.905914
31.522964
44.315308
57.539581
70.372421
82.200500
92.889618
102.830688
112.981506
124.411896
137.846588
153.282898
169.800873
185.797302
199.428894
209.256012
214.756683
216.588928
216.394409
216.196503
217.421967
219.847443
221.196014
217.183197
202.970734
174.978638
132.762817
79.808594
22.987457
-29.390747
-70.045929
-94.783707
-103.355057
-98.782043
-85.872620
-69.505951
-53.450989
-39.981842
-30.176636
-24.440308
-22.724823
-24.582275
-28.932373
-34.055511
-38.003662
-39.180542
-37.027191
-32.232697
-26.467560
-21.592224
-18.837585
-18.344055
-19.137085
-19.773956
-18.907410
-16.007019
-11.511230
-6.599136
-2.674881
-0.784729
-1.162781
-3.223419
-5.852753
-7.795853
-8.135208
-6.380432
-2.599197
2.692520
8.651413
14.267044
18.641586
21.331772
22.696365
23.867401
26.292023
31.154114
38.769043
48.493103
59.106003
69.573898
79.594849
89.735901
100.997650
114.023544
128.525253
143.006363
155.161469
162.605240
163.638672
157.756821
145.686447
128.972900
109.364182
88.496033
67.688385
47.943348
29.977314
14.077095
-0.074219
-13.282606
-26.550749
-40.517120
-55.011810
-69.095528
-81.533478
-91.506477
-99.073059
-105.186752
-111.037514
-117.340927
-123.946373
-129.796143
-133.653381
-134.626373
-132.662277
-128.486206
-123.247200
-117.922089
-112.899673
-107.957687
-102.325119
-95.045502
-85.155457
-71.826599
-54.564545
-33.507355
-9.646439
15.020401
37.826599
56.126236
68.073090
73.235992
72.610992
67.949829
61.059875
53.218323
45.306458
38.220703
33.531738
33.386444
40.013763
54.834656
77.666229
106.695923
138.636169
169.353973
194.347626
209.199585
209.971619
194.112488
161.694061
116.100616
63.854706
12.891479
-29.968842
-61.349701
-82.072815
-96.151459
-108.482880
-122.423126
-138.806824
-156.244843
-172.603943
-186.415100
-197.444305
-206.495911
-214.669983
-222.665955
-230.518066
-237.874939
-244.262451
-249.427094
-253.419739
-256.425873
-258.483459
-259.009003
-256.681549
-249.752563
-236.897339
-217.941681
-194.490051
-169.619141
-146.790741
-128.533600
-115.392883
-105.907990
-97.401001
-87.445526
-74.976318
-60.640564
-46.460144
-34.564819
-26.269501
-21.413971
-18.547821
-15.601715
-10.980347
-4.218933
3.890656
11.737778
17.723770
20.969910
21.749573
21.165619
20.677261
21.390594
23.654724
27.141617
31.146935
35.052841
38.532917
41.563709
44.237411
46.544846
48.339699
49.435577
49.832169
49.787834
49.852745
50.598312
52.339401
54.995010
58.034264
60.875259
63.139618
64.863922
66.287964
67.521881
68.141846
67.075043
63.023407
55.161484
43.753998
30.391617
17.806976
9.224854
7.874664
16.360260
35.932861
65.857880
102.834167
141.128906
173.940094
195.363831
202.542053
196.574951
181.976654
164.615295
149.221497
137.426422
127.303986
114.668884
95.394165
67.656464
32.731567
-5.705719
-43.599213
-78.355560
-109.474579
-137.526703
-162.315521
-181.316238
-189.603043
-181.505356
-152.742157
-102.008881
-31.138794
55.602814
152.260437
251.562958
345.008179
423.725006
480.325562
511.000092
516.746216
502.680267
475.692596
441.703583
403.918976
362.764893
317.098724
265.636322
207.761719
143.849548
75.643646
6.690826
-57.310699
-109.327484
-142.935791
-154.733109
-145.775269
-121.278519
-88.617371
-54.818726
-24.967346
-2.044456
12.266479
16.713341
10.425911
-6.200691
-30.966805
-59.887978
-88.462418
-113.217102
-132.777847
-147.724289
-159.679230
-170.010712
-178.965881
-185.697708
-188.845627
-187.367340
-181.152267
-171.199478
-159.286285
-147.502991
-137.556808
-130.405273
-126.127548
-123.985153
-122.843826
-121.586533
-119.488739
-116.224030
-111.887070
-106.708344
-100.836014
-94.428101
-87.709824
-81.022110
-74.990219
-70.211761
-66.944595
-64.857117
-63.073837
-60.364044
-55.668243
-48.455170
-38.834686
-27.438293
-15.101746
-2.558441
9.656097
21.148621
31.625549
40.777222
48.390961
54.417175
59.130951
63.217194
67.643585
73.422577
81.252686
91.377045
103.437347
116.803864
130.819763
144.845093
158.108093
169.280609
176.342529
176.867584
168.816376
151.376221
125.615753
94.327881
61.170990
29.576172
1.812744
-21.289062
-40.029266
-55.181427
-67.497009
-77.442535
-85.188049
-90.894653
-94.774261
-97.246277
-98.869446
-100.331940
-102.362335
-105.689270
-110.827576
-117.864624
-126.655060
-137.003143
-148.993011
-162.926819
-178.763062
-195.374115
-210.058868
-218.915161
-218.120331
-205.794708
-183.168732
-154.818695
-127.314301
-107.045746
-98.173492
-101.572327
-115.033569
-134.314880
-154.437012
-170.555359
-178.531464
-175.495575
-160.393951
-134.598083
-102.008606
-68.265167
-39.135406
-18.536926
-7.084091
-2.056671
1.077637
6.509201
16.181793
29.272400
43.211929
55.403458
64.665230
71.588120
77.721077
84.249092
91.295174
97.929749
102.980759
105.642700
105.568237
102.328415
95.088272
82.626266
64.072174
39.817120
11.799847
-16.981499
-43.670586
-66.752586
-86.446510
-104.394241
-122.517044
-141.880051
-161.789261
-179.491425
-190.459473
-189.116837
-170.058640
-129.446030
-66.688950
14.442444
105.633728
195.373047
271.612152
324.735413
349.726868
346.646667
319.961365
276.914307
225.728729
174.106018
128.077484
91.277466
64.652985
46.672089
34.233215
24.604614
17.160187
13.741455
17.687531
31.508026
55.317352
86.373230
120.020691
151.359467
177.622253
198.820557
216.334076
231.749237
244.950500
255.199615
262.224976
266.882202
270.242889
274.058746
279.437622
284.901855
286.895660
279.213989
256.738892
218.139404
166.242371
106.417053
47.676971
0.626404
-26.558014
-29.639877
-12.609039
15.430252
43.572845
61.187943
58.671600
32.647308
-13.972702
-75.410110
-144.414139
-218.349487
-296.676819
-372.195496
-429.128723
-459.360596
-466.326050
-456.559570
-445.796265
-428.564453
-401.114868
-363.932343
-321.177612
-270.760437
-220.346222
-176.812897
-142.866425
-117.691246
-97.005638
-79.184601
-63.413170
-48.884377
-35.295601
-24.434471
-16.213921
-8.844101
-0.545975
10.614235
23.389000
36.057076
47.693428
57.894325
65.269562
69.860672
72.862137
75.447784
78.949738
82.765442
86.143677
88.947739
91.529526
93.652725
95.719421
98.306656
101.496536
105.095108
107.835266
108.599503
107.046753
103.689835
99.409241
95.762253
94.367615
96.207489
101.071213
107.048294
111.143341
110.206757
102.085495
86.355698
64.784149
40.893295
18.890366
2.428421
-6.294373
-6.941864
-0.933624
9.098373
20.096939
29.250778
34.662689
35.598755
32.504044
26.597366
19.386353
12.092560
5.541733
0.187531
-3.610519
-5.416519
-4.766479
-1.441025
4.240677
11.227158
17.944382
22.641647
23.963776
21.207603
14.220413
3.136208
-11.911316
-30.746078
-52.796234
-76.595329
-99.712746
-119.295059
-132.936340
-139.683136
-140.259338
-136.639862
-130.972870
-124.546715
-117.350250
-108.624702
-97.727081
-84.907455
-71.466225
-59.055878
-48.829445
-40.857620
-34.082069
-26.953140
-18.232277
-7.519424
4.762840
17.585281
30.112457
41.914833
53.141426
64.276855
75.875122
88.249161
101.472198
115.431427
129.913376
144.790787
159.989120
175.426712
190.858063
205.561096
218.044449
226.106781
226.996017
218.009354
197.256195
164.225403
120.247513
68.338150
12.516691
-43.116356
-95.036842
-140.713821
-178.438919
-206.885483
-225.003204
-232.140060
-228.471298
-215.517471
-196.017075
-173.385193
-150.862915
-130.677856
-113.592422
-99.260048
-86.810188
-75.609657
-65.682671
-57.576908
-51.913551
-48.908894
-48.153976
-48.550205
-48.847359
-48.073814
-45.876427
-42.599037
-38.840523
-35.084450
-31.219833
-26.659222
-20.462593
-11.944557
-0.914040
12.237198
26.595989
40.990601
54.181683
65.128082
73.179779
78.364586
81.389458
83.673950
86.837692
92.113579
99.846115
109.331223
119.213120
128.236053
136.006516
143.159775
151.321213
162.269379
176.967361
194.714905
212.746155
226.516785
230.982803
222.243866
199.112671
163.914078
121.905884
79.667259
43.001587
15.001991
-4.860687
-20.460281
-37.467819
-61.195496
-94.583359
-137.101990
-184.907211
-232.242599
-273.339630
-304.103424
-322.773804
-329.519592
-325.492188
-311.959290
-290.126953
-261.554047
-228.628891
-194.608658
-162.761871
-135.269592
-112.388550
-92.480896
-72.961975
-51.788116
-28.504013
-4.602875
17.102463
33.806412
43.941528
47.919037
47.797272
46.366348
45.996521
47.863113
51.917603
57.378265
63.441116
69.734314
76.406769
83.674057
91.504684
99.319672
106.074738
110.793411
112.974655
112.913300
111.622070
110.450989
110.629608
112.957520
117.704727
124.599319
132.717010
140.284363
144.685989
142.911240
132.686432
113.630997
87.853195
59.475433
32.938736
11.372269
-4.388580
-15.221542
-22.319931
-26.104752
-26.157166
-22.288315
-15.914108
-10.536545
-10.597351
-19.478882
-37.565201
-61.719070
-86.569016
-106.622391
-118.346222
-121.101807
-116.730804
-108.228516
-98.292572
-88.352112
-78.433228
-67.730316
-55.455841
-41.549713
-27.054596
-13.757416
-3.549561
2.461395
4.329041
3.348999
1.370239
0.009857
0.071533
1.200836
2.357300
2.458862
1.006409
-1.635101
-4.503265
-6.418060
-6.390106
-3.679382
2.132538
11.005951
21.859039
31.966400
36.993042
32.031647
13.740540
-17.725037
-57.925964
-99.375488
-134.295807
-157.470093
-167.767853
-167.565247
-160.705505
-150.209381
-137.229401
-121.376160
-102.132019
-79.879761
-56.138184
-32.856201
-11.294861
8.435425
27.306244
46.548248
66.921173
88.371368
110.071106
130.983551
150.075378
166.554535
179.589935
188.058624
190.512390
185.491486
172.262360
151.385529
125.145081
97.042908
70.966858
49.967529
35.408295
26.749573
22.078003
19.067719
15.818390
11.305420
5.225464
-2.103424
-10.052368
-17.557098
-23.228638
-25.706604
-24.397125
-20.425903
-16.938263
-18.432007
-29.132050
-51.027069
-82.771057
-119.806213
-156.102448
-186.231934
-207.081268
-218.235016
-221.245636
-218.280273
-210.984772
-200.069305
-185.582764
-167.640808
-146.933105
-124.766418
-102.709015
-81.991577
-63.242035
-46.383209
-30.940033
-16.453094
-2.833740
9.618103
20.360107
29.099335
36.191833
42.666992
49.926285
59.152863
70.676147
83.804199
97.074768
108.941574
118.479279
125.960220
132.784897
140.988586
152.292786
167.090805
183.910004
199.478119
209.602844
210.468445
199.940308
178.320297
148.230911
113.727936
78.985092
47.299774
20.577057
-0.545746
-16.286652
-27.238419
-34.209274
-38.114883
-39.788116
-39.859924
-38.496811
-35.459534
-30.591827
-24.405685
-18.552765
-15.728912
-18.693451
-29.158783
-46.890915
-69.637192
-94.013992
-116.736862
-135.488922
-149.290009
-158.089340
-162.177048
-161.816666
-157.149521
-148.318085
-135.711151
-119.944992
-101.634796
-81.222687
-58.789093
-33.926941
-6.185425
24.231079
55.570221
84.030548
104.202606
110.869598
101.229187
76.652069
42.791901
7.733673
-20.884521
-38.291901
-43.745193
-39.660294
-29.662827
-16.841766
-2.924149
11.472580
26.107361
40.723083
55.084106
69.259186
83.752960
99.074860
114.972275
129.903870
141.105988
145.320587
140.066727
124.784698
101.316635
73.497543
45.917358
22.404022
4.977142
-6.413231
-13.322884
-17.827095
-21.598488
-25.393196
-29.145042
-32.387840
-34.800819
-36.497932
-37.909279
-39.681122
-42.378288
-46.384102
-51.736694
-58.180099
-65.127876
-71.711769
-77.005478
-80.251663
-81.059105
-79.450943
-75.847038
-70.812256
-64.971069
-58.898773
-53.071465
-47.892342
-43.634880
-40.425919
-38.160080
-36.603790
-35.307991
-33.785843
-31.591263
-28.370964
-23.969795
-18.438972
-11.996857
-4.920006
2.589146
10.450771
18.637726
27.090042
35.619389
43.877525
51.643372
58.911327
65.988525
73.400986
81.694748
91.102142
101.565887
112.821037
124.546997
136.680664
149.275513
162.334061
175.270248
186.596893
193.958054
194.602524
186.315918
168.194489
141.263046
108.335167
73.326584
40.208733
12.067871
-9.548031
-24.679672
-34.607605
-41.110382
-45.722183
-49.292152
-51.850449
-52.892860
-52.034744
-49.210609
-44.782814
-39.224182
-33.180908
-27.716080
-24.760773
-27.131493
-37.761971
-58.285645
-87.625710
-121.805832
-154.940308
-181.423737
-197.890930
-204.084915
-202.213577
-195.294968
-185.477936
-173.214081
-157.704254
-137.945618
-113.863075
-86.899681
-59.692528
-35.269760
-15.959641
-2.454720
6.407578
13.124229
20.547958
30.890228
45.048683
62.780472
82.975212
103.845306
122.751503
136.072159
139.667435
130.325592
107.545616
74.509636
37.468025
3.246964
-23.587387
-42.320648
-55.580338
-67.011665
-78.682510
-89.993057
-98.401482
-101.354919
-97.988564
-89.685577
-79.436493
-71.011879
-68.419907
-75.672104
-95.885193
-129.872009
-174.753372
-223.738800
-267.670471
-298.108643
-310.344696
-304.716736
-285.674194
-259.120300
-229.630341
-198.918304
-166.206085
-129.890442
-89.339661
-45.807938
-1.839767
39.924774
77.880402
111.619812
141.202057
166.166718
185.062683
196.242828
199.395599
196.828125
193.298431
194.173889
202.559937
217.136414
232.211151
239.937378
233.963470
212.393738
178.560455
139.370117
102.315979
72.665985
52.169281
39.570221
32.248291
27.966919
25.788574
25.881470
28.645447
33.913208
40.725342
47.734314
53.879272
58.534607
61.300476
61.531189
58.162354
50.267273
37.733032
21.873474
5.287415
-8.761414
-17.422668
-18.880981
-12.646057
0.625366
19.455750
41.746216
65.143921
87.515442
107.691406
125.784851
143.174744
161.646851
182.179993
204.020996
224.553040
240.062866
246.936157
242.853821
227.403015
202.098877
169.881714
134.399841
99.220154
67.233704
40.206604
18.660461
2.080200
-10.669128
-20.851776
-29.472717
-37.213623
-44.356110
-50.920929
-56.807434
-61.874237
-66.128326
-69.750305
-73.121521
-76.664032
-80.751862
-85.370270
-90.235962
-94.882782
-98.870087
-101.873993
-103.754578
-104.411011
-103.714294
-101.638550
-98.369873
-94.485291
-90.800049
-87.978546
-86.204193
-85.016129
-83.470184
-80.605453
-75.946671
-69.693954
-62.588776
-55.551682
-49.198029
-43.730774
-38.946075
-34.416504
-29.697327
-24.466644
-18.604065
-12.201813
-5.609619
0.768066
6.574829
11.746002
16.614655
21.766571
27.720581
34.794647
42.874817
51.572754
60.514923
69.528442
78.785294
88.594666
99.292816
110.993530
123.428055
135.739166
146.467865
153.667877
155.296539
149.843979
136.946884
117.655380
94.317535
69.970428
47.450897
28.769409
14.762115
5.207657
-0.921448
-5.006668
-8.450592
-12.406769
-17.448547
-23.533325
-30.069733
-36.164986
-41.073715
-44.402573
-46.197517
-46.862129
-46.987198
-47.237495
-48.204231
-50.360195
-53.856339
-58.316910
-62.753674
-65.793701
-66.160164
-63.046936
-56.553852
-47.607155
-37.821922
-29.019472
-22.799566
-20.085505
-21.129951
-25.539074
-32.724346
-42.329041
-54.370514
-69.253418
-87.226486
-107.820610
-129.460297
-149.430801
-164.476929
-171.563507
-168.934204
-156.605026
-136.556015
-112.232666
-87.565712
-65.935181
-49.182922
-37.288742
-28.660610
-21.018375
-12.177456
-0.692543
14.016537
31.858650
52.137569
73.722359
94.937508
113.623650
127.448730
134.536026
133.802536
125.458252
110.917816
92.486694
72.794647
54.156811
37.989803
24.588024
13.263752
2.896198
-7.400234
-17.722054
-27.381092
-35.376793
-40.962055
-44.154720
-45.688732
-46.579784
-47.567108
-48.870178
-50.250771
-51.354019
-52.006439
-52.420631
-52.968960
-53.988152
-55.632004
-57.773933
-60.124016
-62.301140
-63.973976
-64.815392
-64.619431
-63.152054
-60.242691
-55.770168
-49.885521
-43.075752
-36.195301
-30.211790
-25.727329
-22.710714
-20.298422
-17.235260
-12.548515
-6.347374
0.032314
4.495296
5.189312
1.553509
-5.305893
-13.052979
-19.158310
-21.920784
-20.812508
-16.301239
-9.112244
0.311790
11.902039
25.667747
41.169868
57.458588
73.391960
88.248596
102.026390
115.258698
128.385437
141.067841
151.859833
158.631882
159.319321
152.871521
139.726120
121.720215
101.375351
81.202423
63.189926
48.504196
37.626450
30.422440
26.259079
24.024582
22.452911
20.371666
17.062920
12.438255
6.914276
1.111420
-4.508171
-9.809074
-15.094261
-20.936577
-28.051025
-37.159302
-48.727516
-62.683548
-78.152573
-93.568794
-106.982384
-116.666275
-121.687271
-121.944466
-118.018600
-110.668022
-100.585876
-88.302963
-74.482193
-60.098495
-46.379486
-34.491814
-25.133377
-18.277710
-13.236900
-9.083405
-5.087692
-1.023293
2.745514
5.568283
6.954529
7.044395
6.839531
8.066475
12.678307
22.138206
36.964516
56.622932
79.777245
104.758957
129.896332
153.509476
173.892731
189.468704
199.209656
203.109451
202.275146
198.330902
192.326019
183.754410
170.252228
148.518372
116.014549
72.883179
22.681534
-28.107117
-72.003304
-102.918625
-118.082260
-118.631630
-108.851669
-94.500137
-80.689713
-70.500526
-64.278214
-60.119785
-54.819908
-45.054642
-28.308125
-3.571620
27.985458
62.755760
94.866585
117.234703
123.465729
109.925812
77.336296
30.856670
-21.273251
-70.106293
-108.413651
-132.110474
-140.558258
-135.758072
-121.335976
-101.424576
-79.950134
-60.053841
-43.737389
-31.689278
-23.513351
-18.307411
-15.096191
-13.328957
-12.832253
-13.552689
-15.262909
-17.401978
-19.083603
-19.315689
-17.139511
-11.812973
-3.086121
8.577194
21.686523
33.682816
41.314682
41.507355
32.443451
14.375015
-10.221573
-37.299667
-62.455887
-82.263718
-95.285980
-102.233200
-105.340454
-107.344238
-110.351593
-115.198959
-121.441452
-128.072906
-134.357773
-140.584396
-148.111069
-158.721054
-173.759125
-193.395905
-216.545349
-241.431259
-266.426880
-290.490967
-313.059662
-333.443695
-350.383881
-362.082428
-366.781952
-363.321930
-351.630310
-332.539642
-307.286133
-277.058655
-242.850464
-205.426178
-165.399887
-123.123810
-78.652512
-31.788498
17.571121
68.960480
121.054733
171.811401
219.236725
262.162628
300.786560
336.675354
372.427155
411.251617
456.210754
509.077484
569.021118
631.670532
689.295166
732.728821
754.509888
751.672180
727.032227
687.917236
643.051270
599.236389
559.487732
523.219116
488.176392
452.606995
416.222382
379.775635
343.795929
307.531555
268.816864
224.991241
173.983643
115.031799
48.761215
-23.349609
-99.347015
-176.833435
-252.592575
-322.551086
-382.099792
-427.305054
-456.156189
-469.245819
-469.492126
-460.832520
-446.713409
-429.223816
-409.048096
-386.217285
-361.010315
-334.447021
-308.037933
-283.359131
-261.303619
-241.977661
-224.804855
-209.021088
-194.068451
-179.899750
-166.901230
-155.406296
-145.369919
-136.093369
-126.267288
-114.507935
-99.785522
-81.923737
-61.637192
-40.301743
-19.483231
-0.684464
14.930222
26.594406
33.930969
37.061462
36.591187
33.653030
29.669174
26.115067
24.117630
24.214539
26.254608
29.544388
33.397949
37.455368
42.203537
48.768677
58.513962
72.367447
90.298096
111.239281
133.128204
153.258301
168.310043
174.544601
168.262527
146.863373
110.185822
61.515533
7.420563
-43.857765
-84.829453
-111.036690
-121.949501
-120.317360
-110.404770
-96.233742
-80.590233
-64.794952
-49.256935
-33.956619
-18.814537
-3.681534
11.592819
26.995316
42.376938
57.360252
71.601089
85.058411
97.957047
110.660278
123.491104
136.735748
150.925629
166.999023
185.893539
207.637817
230.313217
249.846069
260.822479
258.418274
240.292923
207.454514
163.496597
112.665115
58.177429
1.849808
-54.883484
-109.337418
-156.939606
-192.146179
-210.790955
-212.114166
-199.457733
-178.789581
-156.184479
-135.528778
-117.725739
-101.493561
-84.966156
-66.956512
-47.291931
-26.649384
-6.220581
11.959290
24.586945
27.234741
15.639313
-12.316925
-54.813141
-105.688507
-156.112366
-197.508026
-224.392395
-235.663879
-233.962402
-223.569580
-208.348053
-190.581360
-171.134125
-150.492126
-129.677795
-110.403656
-94.444214
-82.574127
-74.034760
-66.644470
-57.794373
-45.354279
-28.507599
-7.712555
15.758453
40.381683
64.840332
87.933533
108.548126
125.581451
138.170319
145.857941
148.620300
146.773682
140.728180
130.928894
117.865967
102.419403
85.881073
70.060822
57.075623
48.901428
46.666168
49.672577
54.937592
57.506012
52.035126
34.986786
6.373138
-29.867798
-67.438782
-100.361603
-125.379150
-142.557068
-154.276459
-163.001556
-169.548889
-172.876770
-171.131500
-163.247375
-149.863708
-133.191833
-115.831421
-99.527130
-84.585800
-69.991287
-54.290787
-36.518661
-16.862854
3.480957
22.817139
39.880264
54.484772
67.497452
80.472504
94.671936
110.558456
127.624847
144.845795
161.151428
175.516037
186.816711
193.562210
194.186615
187.491089
173.495544
153.698593
130.667618
107.031311
84.498474
63.535797
43.777283
24.945984
7.467606
-7.525864
-18.788071
-25.739899
-28.836456
-29.426239
-29.092636
-28.988632
-29.366821
-29.688370
-29.058594
-26.869812
-23.362473
-19.781494
-17.909637
-19.180099
-23.904907
-30.981842
-38.364975
-44.190659
-47.824600
-50.381683
-54.126038
-61.171616
-72.051376
-85.206635
-97.446091
-105.428757
-107.165283
-102.783813
-93.974274
-82.891159
-70.904327
-58.321335
-44.946625
-30.874962
-16.681969
-2.958595
10.585579
25.380714
43.030167
63.667366
84.779221
101.408012
108.232704
102.205627
84.244965
58.969482
32.772278
11.252701
-2.366158
-7.270294
-4.040070
6.585419
24.074654
47.631836
75.408943
104.131805
129.599579
147.880615
156.625092
155.759979
147.543762
135.427368
122.519417
110.097427
97.102486
80.752625
58.200012
28.249298
-7.772469
-46.280449
-82.864906
-113.835625
-137.046799
-152.057388
-159.534027
-160.751862
-157.315552
-151.303146
-145.149094
-141.210083
-141.124664
-145.109009
-151.914505
-159.267090
-164.746887
-166.456024
-163.473755
-155.829651
-144.405853
-130.620087
-116.022934
-102.011665
-89.344025
-77.940971
-66.979568
-55.322517
-41.975307
-26.602783
-9.719402
7.535145
23.786949
38.103535
50.406013
61.667702
73.643387
88.109032
105.903816
126.160004
146.224380
162.500229
171.835190
172.920883
166.819397
156.447006
145.257446
135.974365
129.678558
125.800285
122.602066
117.966301
110.052246
97.638344
80.253113
58.225533
32.679474
5.458733
-21.066933
-44.335945
-62.007095
-72.430458
-75.016823
-70.453178
-60.692757
-48.567368
-37.050880
-28.436691
-23.745071
-22.642776
-24.025093
-26.684967
-30.049355
-34.246544
-39.731331
-46.481407
-53.362289
-58.228088
-58.639030
-52.981781
-41.232101
-24.935966
-6.421394
12.189247
29.787354
46.243118
61.890259
76.927277
91.360550
105.067215
117.972008
129.648895
138.627167
142.061584
136.267502
118.319099
87.975243
48.699844
6.989388
-29.771126
-55.862709
-68.921608
-70.023911
-62.269295
-49.164078
-33.482361
-17.175766
-2.064209
9.794655
16.106438
15.286613
7.302841
-5.886009
-20.857368
-33.836578
-42.154335
-45.048042
-43.717987
-40.559372
-37.899185
-37.025154
-37.812309
-39.227425
-40.057983
-39.745590
-38.487122
-36.876976
-35.380264
-33.974701
-32.246613
-29.746109
-26.309166
-22.059433
-17.264778
-12.066818
-6.485397
-0.560181
5.399384
10.891396
15.564941
19.544357
23.528084
28.408531
34.652725
41.877983
48.922943
54.464256
57.778008
59.208794
60.199387
62.529648
67.656410
76.010674
86.821983
98.134483
107.217796
111.135193
107.399864
94.858620
74.145103
47.741486
19.514656
-6.446152
-26.942612
-40.460373
-47.286819
-48.974312
-47.558281
-44.795425
-41.756111
-38.882385
-36.145493
-33.473785
-30.863323
-28.497124
-26.653065
-25.595272
-25.468708
-26.234154
-27.795639
-30.011604
-32.800930
-36.170311
-40.080582
-44.250217
-48.018791
-50.436581
-50.501541
-47.485634
-41.303619
-32.596458
-22.490469
-12.260406
-2.803619
5.631109
13.396845
21.060255
28.991001
37.038139
44.540363
50.652073
54.878529
57.490887
59.588722
62.724335
68.102074
75.799477
84.263084
90.698288
91.775208
85.004768
69.554886
46.711960
19.473585
-8.345308
-33.147022
-52.345825
-64.608047
-69.907928
-69.265640
-64.605194
-58.453861
-53.515755
-52.074879
-55.290703
-62.881405
-73.146454
-83.752121
-92.542519
-98.177681
-100.362625
-99.440117
-95.962990
-90.253235
-82.420044
-72.550690
-61.078854
-48.759666
-36.556351
-25.326584
-15.580330
-7.527618
-1.138678
3.645576
6.958858
9.106625
10.709911
12.677364
16.059971
21.737930
30.035172
40.609985
52.507919
64.409019
74.972595
83.193275
88.542252
91.155937
91.863686
92.046059
93.387421
97.478439
105.299957
116.668747
129.979401
142.353592
150.245895
150.517197
141.426788
123.265053
98.210785
69.621201
40.926521
14.681633
-8.024849
-27.316261
-43.962799
-58.607635
-71.381569
-81.969383
-89.938942
-95.127670
-97.692871
-97.950653
-95.972397
-91.482521
-83.956604
-73.038452
-59.261452
-44.521439
-32.138496
-26.104691
-29.846840
-44.789948
-69.452614
-99.700081
-129.900238
-154.763809
-170.950073
-177.755905
-176.643997
-170.098480
-160.333160
-148.584686
-135.290131
-120.579315
-104.948746
-89.273834
-74.524918
-61.244324
-49.303093
-38.035622
-26.595329
-14.482304
-1.845863
10.528770
21.611843
30.623249
37.417587
42.601170
47.273701
52.558651
59.167847
67.118759
75.816116
84.293137
91.703369
97.574265
101.973740
105.350227
108.410339
111.842758
116.399010
122.724205
131.174957
141.494370
152.318817
161.211166
164.953522
160.547394
146.258499
122.371246
91.185013
56.285988
21.536797
-10.039597
-36.524040
-57.058353
-71.302750
-79.219185
-81.008827
-77.319565
-69.476410
-59.297714
-48.752373
-39.415913
-32.144173
-27.037285
-23.705528
-21.660770
-20.622192
-20.644077
-21.874878
-24.438976
-28.125313
-32.431637
-36.687973
-40.337902
-43.188515
-45.330879
-47.026558
-48.410797
-49.384800
-49.664982
-49.011196
-47.589439
-45.863850
-44.435986
-43.607880
-43.116703
-42.124489
-39.613556
-34.939949
-28.116592
-19.879753
-11.263222
-3.122528
4.226044
11.071175
18.028503
25.739243
34.523293
44.274933
54.451401
64.457169
73.799011
82.284744
90.084419
97.569725
105.230621
113.476959
122.581131
132.467773
142.606537
151.777481
158.064743
159.123322
152.848663
138.119736
115.415466
86.878075
55.719566
25.302414
-1.782448
-24.298885
-42.255802
-56.465214
-67.995163
-77.664192
-85.877151
-92.600449
-97.580742
-100.584915
-101.511948
-100.432693
-97.594666
-93.351181
-87.961594
-81.748199
-75.080894
-68.485474
-62.653236
-58.239262
-55.583088
-54.577225
-54.642948
-54.913376
-54.556046
-53.127304
-50.667511
-47.553234
-44.308243
-41.243073
-38.301792
-35.213116
-31.659698
-27.576035
-23.209476
-18.913387
-14.901772
-11.032944
-6.842731
-1.818909
4.224926
11.093742
18.195564
24.927662
31.046455
36.665169
42.209927
48.137512
54.681454
61.828304
69.459877
77.393532
85.468460
93.559959
101.553696
109.389839
117.284554
125.777664
135.513763
146.879105
159.236176
170.547211
177.637909
177.109589
166.579697
145.845001
117.221146
84.904289
53.655014
27.231953
7.481775
-5.678817
-13.676743
-18.296556
-21.185799
-23.894844
-28.173805
-36.085125
-49.595882
-69.905884
-96.888466
-129.254517
-165.279907
-203.592667
-243.489792
-284.436646
-324.911102
-361.812378
-390.769501
-407.450256
-409.365417
-396.975555
-373.544617
-343.730225
-311.984741
-281.016632
-251.427856
-222.372314
-192.434113
-160.722534
-127.412521
-93.770058
-61.789825
-33.542793
-10.565521
6.673691
18.720840
27.050171
33.603058
40.421341
49.339478
61.787476
78.504623
99.065338
121.572968
142.597168
157.953339
164.091705
159.595703
146.312897
129.031677
113.986237
106.635498
109.712097
122.437866
141.476593
162.575226
182.247314
198.803772
212.172485
223.252289
233.122040
242.810608
253.119507
264.514160
276.843903
288.727661
297.669891
300.481628
294.382446
278.146088
252.819641
221.471649
188.205658
156.919373
129.903931
107.375061
87.632874
67.941589
45.931366
20.745178
-6.418915
-32.798492
-55.243774
-71.644043
-81.584259
-86.305939
-87.807922
-87.723816
-86.910492
-85.565704
-83.857544
-82.265961
-81.648773
-82.666473
-85.251190
-88.575500
-91.263138
-92.152969
-90.806976
-87.559174
-83.221817
-78.575836
-73.958817
-69.184219
-63.862671
-57.529648
-50.007202
-41.417084
-32.066025
-22.384216
-12.862961
-3.986710
3.762955
10.010880
14.688568
18.141434
21.164810
24.751007
29.588882
35.723541
42.516373
48.939667
54.136841
57.959839
61.020172
64.318268
68.944069
75.615929
84.687119
96.162575
109.698227
124.425804
138.685974
149.911591
155.028107
151.375977
137.576996
114.124405
83.368591
48.862701
14.425802
-16.723183
-42.519230
-62.062916
-75.458771
-83.505959
-87.370399
-88.432747
-88.123138
-87.698570
-88.072113
-89.751068
-92.804672
-97.023941
-102.148911
-107.943634
-114.204407
-120.815208
-127.613953
-134.349121
-140.517517
-145.428955
-148.313065
-148.422211
-145.254776
-138.782700
-129.523880
-118.440659
-106.654297
-95.079636
-84.260468
-74.284409
-64.954941
-56.017517
-47.330627
-38.851898
-30.556656
-22.438889
-14.473831
-6.738632
0.555725
7.049820
12.393402
16.510956
19.737564
22.760757
26.449020
31.443115
37.986649
45.863647
54.586334
63.559753
72.384018
80.900879
89.149445
97.288025
105.598831
114.514587
124.671753
136.673431
150.681595
165.879990
180.145172
190.336075
193.089722
185.936981
168.159836
141.037659
107.541199
71.493103
36.565186
5.620132
-19.599335
-38.505173
-51.428787
-59.452667
-63.924759
-66.193466
-67.210938
-67.605270
-67.662140
-67.624115
-67.857574
-68.771271
-70.717102
-73.826477
-78.010651
-83.084991
-88.903198
-95.320190
-102.041443
-108.559662
-114.064362
-117.681885
-118.811310
-117.381714
-113.816101
-108.856079
-103.103363
-96.837891
-90.000153
-82.368195
-73.882385
-64.845306
-55.891998
-47.676849
-40.506378
-34.136017
-27.943329
-21.299438
-13.991577
-6.518372
0.098450
4.805817
6.941711
6.594818
4.489075
1.616943
-1.192383
-3.430450
-5.004242
-5.970612
-6.266357
-5.553162
-3.217712
1.616791
9.817749
21.918121
38.041931
57.612915
79.384155
101.425446
121.310577
136.499756
144.857727
145.027435
136.756165
121.026245
99.803131
75.805969
51.929657
30.721222
13.913727
2.244049
-4.571503
-7.510925
-7.848877
-6.859955
-5.593903
-4.809387
-5.050049
-6.696136
-9.928375
-14.599640
-20.191193
-25.800140
-30.534454
-33.775940
-35.379547
-35.879547
-36.157440
-37.176147
-39.407013
-42.466339
-45.158173
-45.907837
-43.430328
-37.301971
-28.289673
-17.893127
-7.775726
1.042389
8.476959
15.223083
22.273621
30.443420
40.227356
51.515259
63.466705
74.443390
82.134491
84.164429
79.172546
67.620819
52.048859
36.295105
24.069794
17.705231
17.569489
22.351959
30.083069
38.953766
47.796967
55.994171
63.459656
70.414734
77.056213
83.152039
87.414124
87.662811
81.266174
66.417236
43.052521
13.199310
-19.705414
-51.970001
-80.538086
-103.641724
-120.519379
-131.044922
-135.417908
-134.033691
-127.589752
-117.193573
-104.310883
-90.685822
-78.212585
-68.609039
-63.003204
-61.420410
-62.592651
-64.339966
-64.311462
-60.841248
-53.312988
-42.273224
-28.985077
-15.405121
-4.174591
1.476501
-1.981415
-17.196075
-44.711456
-82.066589
-124.019379
-163.777130
-195.039825
-213.766205
-218.931183
-212.212311
-196.714142
-175.654358
-151.466827
-125.690430
-99.394440
-73.810608
-50.612091
-31.675262
-18.364502
-10.775177
-7.311890
-5.160522
-1.320251
6.192169
17.648224
31.702271
46.230225
59.342346
70.190308
79.039612
86.838959
94.492767
102.354095
110.197815
117.448578
123.630005
128.736786
133.287811
138.246964
144.704269
153.389420
164.293762
176.303802
187.283066
194.534775
195.577057
188.812561
174.018692
152.378433
126.062286
97.688766
69.645782
43.781128
21.260025
2.605331
-12.098618
-23.050064
-30.648804
-35.444366
-38.170212
-39.716141
-41.078262
-43.075195
-46.088272
-49.935074
-53.893402
-56.928635
-58.129807
-57.047668
-54.046707
-50.506073
-48.639923
-51.128250
-60.292526
-77.071915
-100.398590
-127.127975
-152.850372
-173.297501
-185.559830
-188.820221
-184.085815
-173.270569
-158.223801
-140.211349
-120.003067
-98.417801
-76.696701
-56.382812
-38.911438
-24.920425
-14.068130
-5.211517
2.939072
11.194283
19.659096
27.868843
35.139900
41.040466
45.468987
48.632584
50.815895
52.268761
53.171471
53.799213
54.457001
55.581360
57.570080
60.753422
65.312881
71.162537
77.982712
85.254196
92.380447
98.871902
104.581650
109.682648
114.531715
119.342506
123.820015
127.107056
127.753036
124.214706
115.370697
101.000908
82.135483
60.832619
39.713871
21.152035
6.596760
-3.708435
-10.540462
-15.047005
-18.182526
-20.252808
-21.168682
-20.810894
-19.551460
-18.189079
-17.595100
-18.177113
-19.712635
-21.664673
-23.758133
-26.354950
-30.377499
-36.680504
-45.398514
-55.806862
-66.871529
-78.074417
-89.909851
-103.320114
-118.674637
-134.574188
-147.718750
-154.016144
-150.450485
-136.510773
-114.506866
-88.500534
-62.663391
-39.871521
-21.408821
-7.482422
1.957451
6.844666
7.308289
4.263626
-0.374512
-4.060516
-4.467880
-0.390381
7.880096
18.865540
30.542160
41.163879
49.686752
55.887878
60.292145
63.918198
68.008759
73.766266
82.049545
93.155807
106.801285
122.223038
138.155960
152.841293
163.886887
168.518997
164.408325
150.768112
129.121719
103.235352
77.937866
57.220718
42.725662
33.415802
26.448563
18.967484
9.423370
-1.916550
-13.696991
-24.430725
-33.340958
-40.410095
-45.929947
-50.130814
-52.861572
-53.966248
-53.498749
-51.911392
-49.887207
-48.078644
-46.871780
-46.327240
-46.366379
-46.822403
-47.654327
-48.969940
-50.881119
-53.506668
-56.908295
-61.003479
-65.500641
-69.925507
-73.431107
-74.973389
-73.553787
-68.597687
-60.462723
-50.401703
-40.354797
-32.095337
-26.627472
-23.733582
-22.205078
-20.386017
-16.899445
-11.196075
-3.543610
5.190399
14.002014
22.082947
29.032776
34.901489
40.023102
44.895447
49.911499
55.338135
61.131134
67.061951
72.818176
78.205750
83.239807
88.135437
93.211456
98.714783
104.838074
111.510376
118.436768
125.212891
131.322449
136.484924
140.845032
144.996155
149.738190
155.636108
162.297058
168.180481
170.745667
167.257736
155.871399
136.478561
110.967529
82.662125
55.289764
31.864929
14.169617
2.648590
-3.444611
-6.020569
-8.204956
-14.094833
-27.776138
-51.775391
-85.643188
-125.509781
-165.304703
-198.984207
-222.650604
-235.660217
-240.009949
-238.625671
-233.844818
-226.722580
-217.327240
-205.680450
-192.431732
-178.739441
-165.694305
-153.695496
-142.213470
-130.095551
-116.134789
-99.743156
-81.239281
-61.847076
-43.060707
-26.108475
-11.630646
0.264359
9.491882
15.509048
17.414970
14.351822
6.390594
-4.839600
-16.404358
-24.856262
-27.415359
-22.860489
-11.668701
4.440689
23.121628
42.154419
59.752838
74.760956
86.772263
96.166428
104.034225
111.770996
120.699814
131.518494
143.943604
156.687515
167.586517
174.084702
173.875748
165.506699
148.889145
125.438919
97.687363
68.630234
40.893906
16.140289
-4.885941
-22.138992
-35.856262
-46.254303
-53.460678
-57.754654
-59.605896
-59.624023
-58.370468
-56.073212
-52.703415
-48.214783
-42.965530
-37.992584
-34.810043
-34.846191
-38.735031
-45.864838
-54.441086
-62.096313
-66.893265
-67.908493
-65.563309
-61.176086
-56.176697
-51.524750
-47.308197
-42.880539
-37.342178
-29.991165
-20.628143
-9.656799
2.136230
13.869644
24.757370
34.256180
42.191696
48.614868
53.726486
57.781586
61.049011
63.845337
66.553482
69.541946
73.122849
77.502228
82.755890
89.016113
96.508270
105.501862
116.149261
128.081375
140.085861
150.069824
155.433716
153.734268
143.616516
125.275345
100.466217
71.959518
42.701126
15.053635
-9.436996
-29.985962
-46.387329
-58.729477
-67.423798
-73.279495
-77.452324
-81.225395
-85.612999
-91.144157
-97.736542
-105.000107
-112.549973
-120.227806
-128.053680
-136.076935
-144.182434
-152.069092
-159.310440
-165.598541
-170.773529
-174.787842
-177.503540
-178.588287
-177.476776
-173.446350
-165.808441
-154.168610
-138.601074
-119.724243
-98.485909
-76.025398
-53.361977
-31.364975
-10.753769
7.844986
23.960464
37.472549
48.890289
59.337784
70.304672
83.089584
98.343048
115.768738
134.252197
152.222549
167.896957
179.352310
184.522064
181.461746
168.829102
146.699387
116.985794
83.217209
49.605072
19.951767
-3.351700
-19.396912
-28.378754
-30.878464
-27.407898
-18.604385
-5.427765
10.469681
27.011780
42.252075
55.111954
65.734955
75.384689
85.689148
97.800491
111.664902
125.709625
137.227600
143.290604
141.799698
132.234283
115.875854
95.301941
73.438217
52.682907
34.514877
19.502548
7.530365
-1.870941
-9.282669
-15.463882
-21.161774
-27.046082
-33.418274
-40.148041
-46.757896
-52.643524
-57.568779
-61.630760
-65.274956
-68.957603
-72.911034
-77.081680
-81.228462
-85.128479
-88.613419
-91.547928
-93.759506
-95.021767
-95.094414
-93.915863
-91.744377
-89.104767
-86.652161
-84.767845
-83.485649
-82.514061
-81.543327
-80.253235
-78.383476
-75.680649
-71.759697
-66.124748
-58.486572
-49.007698
-38.389809
-27.750351
-18.127792
-9.976578
-3.020065
3.667015
11.116753
19.846504
29.576141
39.229454
47.478134
53.333237
56.567436
57.778694
58.197762
59.262558
62.367683
68.766548
79.424408
94.476547
112.407249
129.635193
141.018036
141.593201
128.800385
104.161903
73.231476
43.766853
22.764748
13.924507
16.680008
27.008980
39.553772
49.591713
54.249290
52.591156
45.046257
32.822773
17.511982
1.007275
-14.649960
-27.610100
-36.718220
-41.759743
-43.602039
-43.764542
-43.789467
-44.562576
-46.055805
-47.489891
-47.845379
-46.506691
-43.667347
-40.260780
-37.532959
-36.407494
-37.035896
-38.535271
-39.131687
-36.576481
-28.966417
-15.799545
1.099057
17.339834
27.004190
24.702091
7.977353
-21.258297
-57.123558
-91.876381
-118.890152
-134.881317
-140.348633
-138.256149
-131.975601
-123.580330
-113.589020
-101.754700
-88.113319
-73.445625
-59.031197
-45.856514
-34.205254
-23.719189
-13.844566
-4.291662
4.847343
13.299440
21.022697
28.455645
36.476707
46.078773
57.944920
72.132141
87.948357
104.309135
120.235550
135.382477
150.294922
166.100388
183.812881
203.489258
223.750732
241.705521
253.561325
255.572937
245.123352
221.640808
187.060135
145.737839
103.460297
65.977119
37.220356
18.224997
7.024082
-0.175499
-7.391172
-17.516014
-31.695606
-49.694942
-70.652649
-93.618393
-117.632996
-141.425568
-163.162155
-180.691498
-192.283752
-197.183044
-195.958984
-190.184082
-181.679840
-171.692383
-160.611084
-148.175766
-134.117401
-118.746704
-103.134132
-88.799026
-76.989265
-68.026283
-61.072960
-54.450188
-46.567238
-36.705750
-25.606544
-15.167000
-7.792648
-5.191498
-7.681465
-14.031990
-21.804634
-28.315758
-31.543686
-30.651855
-26.149666
-19.603325
-13.192688
-9.003120
-8.307632
-10.944176
-15.011154
-17.282852
-14.476448
-4.763794
10.989304
29.242931
45.045856
54.182613
55.035229
49.191261
40.531136
33.312466
30.524612
33.182224
40.632584
51.516151
64.507965
78.526131
92.603523
105.838135
117.503044
127.042374
133.930679
137.174408
134.924820
124.721916
104.585373
74.381584
36.509460
-4.452622
-43.181274
-75.339775
-98.482300
-111.930840
-116.004860
-111.478172
-99.607361
-82.634621
-64.056664
-47.943535
-37.561687
-33.957390
-35.412403
-38.383698
-39.113190
-35.269547
-26.771404
-15.388444
-3.670029
6.113763
12.619642
15.591938
15.652397
14.009182
12.045441
10.816153
10.789351
11.675999
12.770821
13.529280
14.077042
15.366234
18.916214
26.106209
37.293327
51.086823
64.129700
71.822762
69.753159
55.668648
30.694378
-0.584076
-31.749622
-57.007626
-73.295227
-80.904846
-82.265007
-79.792336
-74.145378
-64.014740
-47.518764
-23.995739
4.968676
36.027481
65.720764
92.262405
116.251923
139.883606
165.240753
192.409729
218.528320
238.270569
245.549332
235.518555
206.240005
159.205444
98.997162
32.365608
-32.803505
-88.702377
-128.918549
-149.927780
-152.395889
-141.321747
-124.764694
-110.929771
-105.031990
-107.274879
-113.096153
-115.626930
-109.026581
-90.915222
-62.914169
-29.392075
4.867672
36.366344
63.373020
85.437988
102.486832
114.335220
120.644905
121.148811
115.525688
103.112152
82.669228
52.797386
13.116119
-34.452606
-85.257980
-132.857910
-170.772247
-194.753784
-203.799438
-199.878235
-186.651398
-167.883392
-146.692947
-125.506584
-106.377487
-90.893616
-79.580338
-71.258713
-63.088547
-51.457275
-33.599876
-9.006851
20.198524
50.100388
76.398697
95.779526
106.667213
109.415512
105.969261
99.461876
93.405693
90.790222
93.008034
99.311470
106.942314
112.271149
112.453117
106.684547
96.560120
85.139107
75.471504
69.275513
66.377831
65.046066
62.878174
57.791138
48.750130
36.057243
21.172340
6.184196
-6.985268
-17.045013
-23.608871
-26.979385
-27.828934
-26.904587
-24.854446
-22.376068
-20.356644
-19.865768
-21.883392
-26.931213
-34.616119
-43.580887
-51.754379
-56.837067
-57.053543
-51.706787
-41.575470
-28.671814
-15.558655
-4.464523
3.684387
9.438477
14.583206
21.211639
30.879166
43.837906
58.690048
72.476395
81.071533
80.090637
65.990921
37.314880
-4.751480
-56.345947
-112.048157
-166.543915
-215.898880
-258.169342
-292.819794
-319.706451
-338.227112
-347.325806
-346.124268
-334.895996
-315.440552
-290.493225
-262.722351
-233.702423
-203.816605
-172.806549
-140.592545
-107.670364
-74.632339
-41.166504
-5.736168
33.898109
79.125778
129.056320
180.033203
226.689575
263.719452
287.456543
296.437500
291.057892
272.666077
243.264786
205.876602
164.849106
125.705658
93.916306
73.214279
64.251984
64.537048
69.550522
74.635895
76.673035
74.559265
69.016495
61.671619
54.125202
47.428455
42.029228
37.980476
35.324677
34.177002
34.737534
37.090687
40.914768
45.333061
49.033443
50.615112
49.166721
44.784565
38.787598
33.316616
30.622765
31.994164
36.984779
43.540913
48.844036
50.687962
48.432285
43.256664
37.235443
32.209267
28.891451
26.856140
25.357521
24.193207
23.988537
25.462090
28.354115
30.616365
28.970182
20.333977
3.676099
-19.008465
-43.259178
-63.869896
-76.874115
-80.662491
-75.881897
-64.432877
-48.386066
-29.566338
-9.735603
8.922264
23.710629
31.979191
32.098701
24.186752
10.271515
-6.360809
-22.276093
-34.948334
-43.374374
-47.992615
-50.146324
-51.214005
-52.058968
-52.717445
-52.537926
-50.717949
-46.775085
-41.002861
-34.384392
-28.218513
-23.604408
-21.104858
-20.676369
-21.943718
-24.525070
-28.187981
-32.784851
-38.022751
-43.352066
-48.018730
-51.404549
-53.313942
-54.032463
-54.162582
-54.137428
-53.971024
-53.208153
-51.356216
-48.119499
-43.666122
-38.468826
-33.073174
-27.776962
-22.644623
-17.575768
-12.536774
-7.689255
-3.289780
0.471786
3.626335
6.556519
9.840378
13.989731
19.317917
25.789017
33.046646
40.654663
48.270355
55.776733
63.306404
71.152954
79.623810
89.072060
99.864441
112.299477
126.429863
141.701233
156.794998
169.658844
177.867142
179.242249
172.524887
157.755783
136.237869
110.288506
82.528763
55.396347
30.732803
9.577133
-7.780731
-21.633316
-32.667892
-41.650391
-49.195892
-55.644821
-60.956619
-64.838593
-66.984558
-67.318436
-66.220245
-64.538651
-63.330551
-63.400558
-64.979431
-67.684143
-70.819412
-73.872650
-76.742966
-79.809952
-83.459885
-87.570114
-91.401611
-93.872055
-94.033630
-91.639374
-87.133484
-81.190811
-74.308807
-66.533569
-57.626755
-47.548874
-36.771271
-26.131851
-16.472031
-8.060608
-0.411224
7.378403
15.997253
25.216385
33.681732
39.400009
40.541977
36.355896
27.374069
15.058105
0.994400
-13.679504
-28.396912
-42.711395
-55.813065
-66.245193
-72.300613
-72.714920
-67.397476
-57.560486
-45.140228
-32.033218
-19.405777
-7.528687
4.008026
15.673798
27.639252
39.544159
50.386581
58.882889
63.614227
63.405548
57.595078
46.152023
29.620071
8.937576
-14.785233
-40.385117
-66.587891
-91.943848
-114.692139
-132.944016
-144.984879
-149.737411
-147.117996
-138.006546
-124.102554
-107.333130
-89.441666
-71.575058
-54.381989
-38.267517
-23.568192
-10.732880
-0.122795
7.966393
13.543472
16.800743
18.032097
17.734852
16.468075
14.986584
14.038670
14.108261
15.145088
16.587683
17.546940
17.371918
15.985424
13.964867
12.254215
11.602768
12.217239
13.712902
15.348213
16.440521
16.635178
16.071167
15.137596
14.326706
13.893761
13.812080
13.911758
14.017075
14.182983
14.769348
16.380325
19.460983
24.014297
29.448944
34.749771
39.028992
42.034317
44.386276
47.371109
52.274368
59.640732
68.992630
79.035797
88.529816
96.930054
104.550430
112.079300
119.706833
126.375824
129.768112
127.207077
116.923065
99.029434
75.810638
50.941498
28.234650
10.375671
-1.775757
-8.979660
-12.852417
-14.941620
-16.181885
-16.646744
-15.854614
-13.174103
-8.153137
-0.683899
8.819031
19.270569
28.731415
34.381256
33.312531
23.541962
5.169342
-18.949493
-43.761826
-63.459259
-73.779236
-73.805115
-66.450211
-57.390656
-52.561340
-55.724792
-66.769455
-82.033081
-96.114182
-104.405258
-104.931396
-98.754333
-88.839264
-78.155716
-68.340302
-59.273499
-49.819763
-38.915070
-25.963593
-10.763763
6.697937
26.191437
46.682922
65.725677
79.669464
84.627808
78.007416
59.929352
33.477112
3.989410
-22.520966
-40.887726
-47.830444
-42.333252
-25.272186
0.929138
32.926086
66.740204
98.341888
124.092987
141.284912
148.539307
146.019073
135.543182
120.329956
104.470490
91.978516
85.809204
87.109406
94.749756
105.468567
114.590912
117.281311
109.744934
90.263367
59.518341
20.095245
-24.284790
-69.657501
-112.259079
-148.678162
-175.913376
-191.769501
-195.467468
-188.228470
-173.340668
-155.252838
-138.190308
-124.716858
-115.037415
-107.447540
-99.736511
-90.431458
-79.449341
-67.768311
-56.595428
-46.462463
-37.056610
-27.733124
-18.241638
-9.161804
-1.594086
3.576477
6.435944
8.225342
10.841187
15.871429
23.741791
33.652588
44.009979
53.284973
60.677826
66.281616
70.696655
74.434845
77.566528
79.739868
80.497742
79.782257
78.301056
77.315491
78.295166
82.340393
89.703522
99.678436
110.718811
120.812592
127.804993
129.831329
125.464935
114.171234
96.687103
75.444092
54.663696
39.497620
34.290588
40.582214
55.663055
72.961090
84.015289
81.654572
62.533966
28.221588
-16.012024
-63.457611
-108.292053
-146.658844
-176.542694
-196.786942
-206.515961
-205.361328
-194.207428
-175.728958
-154.000031
-133.237488
-116.356293
-104.051117
-94.979645
-86.794312
-77.481262
-66.129181
-53.096436
-39.360565
-25.831848
-13.005554
-0.966888
10.352020
20.745728
29.768585
36.779327
41.264160
43.042053
42.498169
40.404205
37.810059
35.676483
34.593170
34.668427
35.720886
37.483307
39.921753
43.216858
47.620056
53.150360
59.414764
65.688141
71.348114
76.117065
80.216217
84.225189
88.774872
94.206879
100.604950
107.635254
114.582886
120.380188
123.671051
123.054626
117.537109
106.910126
91.943207
74.282806
55.924408
38.622986
23.560028
11.211700
1.505310
-5.845306
-11.199280
-14.997986
-17.675049
-19.729126
-21.587006
-23.595764
-26.069885
-29.304840
-33.552307
-38.927002
-45.205444
-51.683167
-57.448166
-61.587311
-63.623917
-63.767365
-62.751419
-61.490509
-60.660309
-60.536407
-60.992615
-61.654404
-62.050369
-61.666077
-59.958649
-56.362595
-50.469757
-42.298615
-32.588669
-22.750580
-14.577911
-9.688370
-8.915802
-11.947021
-17.316238
-22.917038
-26.690338
-27.377747
-24.905075
-20.311340
-15.134537
-10.649750
-7.221146
-4.102631
0.033798
6.558838
16.031464
27.978180
41.029922
53.641586
64.813797
74.699677
84.577377
96.212555
111.091843
129.395981
149.579147
168.524673
182.484406
188.311874
184.456421
171.356277
150.974503
126.240074
100.342552
76.378220
56.939560
43.559929
35.954247
31.481270
25.570358
13.230701
-8.771088
-40.244781
-77.143234
-112.853775
-140.743240
-156.200226
-157.615387
-145.786942
-122.833961
-91.433311
-55.363075
-20.265057
6.524513
17.306744
7.069813
-24.018860
-69.669952
-119.243713
-161.366302
-188.003357
-196.938751
-191.681671
-179.263962
-166.871689
-159.161255
-156.987045
-158.276001
-159.677521
-158.488861
-153.823822
-146.501282
-138.042572
-129.319031
-119.939156
-108.523300
-93.910683
-76.388931
-57.959587
-41.573677
-29.608887
-22.643097
-19.060337
-15.831108
-9.969631
0.269398
14.712730
31.702839
48.917732
64.426994
77.397324
88.237541
98.187439
108.817062
121.395454
136.359360
153.243057
170.613434
186.382202
198.179779
203.881073
201.965317
191.872681
174.124207
150.139725
121.859276
91.177696
59.562241
27.899719
-3.277796
-33.344452
-61.140930
-84.789978
-102.026413
-110.897514
-110.534004
-101.594574
-86.188522
-67.203308
-47.528313
-29.310465
-13.772245
-1.420973
7.675564
13.563067
16.354906
16.346535
14.102317
10.443652
6.343486
2.633923
-0.257386
-2.231450
-3.508996
-4.386421
-5.040983
-5.426893
-5.356504
-4.624063
-3.235238
-1.532820
-0.062839
0.687460
0.498722
-0.395458
-1.332455
-1.654404
-1.050834
0.304111
1.812346
2.880456
3.296001
3.464632
4.298693
6.703203
11.200151
17.634920
25.399078
33.816422
42.490143
51.479885
61.055603
71.499100
82.844833
94.771042
106.641174
117.565399
126.369965
131.676270
132.092804
126.637833
115.067741
98.108154
77.335098
54.782776
32.484108
12.121361
-5.159973
-18.655975
-28.208794
-34.187347
-37.438721
-39.160431
-40.596909
-42.762680
-46.106430
-50.489212
-55.171860
-59.120560
-61.305832
-60.971939
-58.087997
-53.361115
-48.188919
-44.174454
-42.466675
-43.323166
-45.954132
-48.956802
-50.962387
-51.272018
-50.053513
-47.939590
-45.503418
-42.813751
-39.419968
-34.728653
-28.390015
-20.414795
-11.213318
-1.602142
6.970520
12.252319
11.659424
3.284973
-12.841095
-34.207245
-56.534729
-75.605713
-89.086914
-97.295441
-102.109467
-104.872162
-104.747681
-98.795135
-83.879150
-59.267273
-27.924866
4.161285
30.505951
46.821381
52.429901
49.699646
42.253052
33.118988
23.827118
14.834808
6.362061
-1.092102
-6.767517
-10.250610
-11.902771
-12.814209
-14.240387
-17.003754
-21.109406
-25.774200
-29.862640
-32.370911
-32.721375
-31.002716
-27.791290
-24.194366
-21.337952
-20.102234
-20.780457
-22.970581
-25.738983
-27.968491
-28.779007
-27.770370
-25.134171
-21.543823
-17.896957
-14.890610
-12.637955
-10.532913
-7.476974
-2.388947
5.275040
15.060577
25.508041
34.335281
38.996109
37.394745
28.592667
13.330246
-5.932846
-25.393875
-41.018753
-49.829819
-50.935104
-45.660843
-36.552643
-26.034515
-15.148895
-3.383011
10.564774
27.388474
46.359146
65.305679
81.534500
92.976410
98.981491
100.407974
98.953735
96.292770
93.341949
89.974030
85.358627
78.370529
68.265671
55.047974
39.547195
23.124817
7.270401
-6.970032
-19.051804
-28.770889
-35.951538
-40.208176
-41.078842
-38.450500
-33.020798
-26.269485
-20.024323
-15.839798
-14.460327
-15.751480
-19.018448
-23.445358
-28.369324
-33.336060
-37.885727
-41.470123
-43.570221
-43.747711
-41.736115
-37.460388
-30.943054
-22.336060
-12.158539
-1.434326
8.334396
15.541321
19.170715
19.372383
17.497551
15.547806
15.198303
16.686295
18.677353
18.926819
15.631126
8.845856
0.904861
-4.493141
-3.733246
4.961548
20.709167
40.508102
60.444374
76.872261
87.065147
89.314690
82.953659
68.696991
49.079041
28.172859
10.286369
-2.185944
-10.432770
-18.980705
-33.507385
-57.574188
-90.259537
-126.237633
-158.356552
-180.967712
-192.412201
-194.975952
-192.771194
-189.072815
-184.876480
-179.106766
-170.028473
-156.857742
-140.181580
-121.465515
-102.009766
-82.333481
-62.414490
-42.350243
-22.847702
-4.995038
10.340010
23.483587
36.040543
50.179642
67.353783
87.069206
106.655914
121.904930
128.494339
123.327347
105.538589
76.688911
40.427841
1.752884
-33.974091
-61.918411
-78.739594
-83.040802
-75.604828
-59.089890
-37.684570
-16.261169
0.560013
9.597733
10.152084
4.367813
-3.498764
-8.905869
-9.176605
-4.741913
1.452087
5.944336
7.089661
6.268890
7.037323
12.964935
25.523956
43.354614
63.279388
82.277802
99.129913
114.580566
130.258209
146.950470
163.596008
177.470856
185.356232
185.160095
176.833221
162.335754
144.795929
127.325226
111.816437
98.562073
86.357391
73.377411
58.220245
40.894684
23.201324
8.462891
0.705200
3.251862
17.703308
43.306244
77.227722
115.302887
152.960846
185.889771
210.421326
223.681213
223.710968
209.564697
181.309906
139.922974
87.225800
25.879761
-40.304138
-106.065063
-164.886932
-210.035492
-236.236786
-241.479645
-227.882996
-201.235840
-169.375977
-140.120300
-119.339706
-109.700699
-110.207306
-116.505981
-122.243423
-121.481140
-111.084549
-92.362488
-70.776428
-53.589630
-46.451843
-50.944748
-64.089340
-80.045685
-92.809616
-98.245514
-94.760300
-82.570831
-62.561172
-35.622513
-2.637360
35.196518
76.271973
118.570801
159.832840
197.766632
230.314392
255.990738
274.185547
285.121826
289.318237
286.830750
276.995972
259.025116
233.099030
201.086456
166.244659
131.874054
99.885269
70.403824
42.542984
15.662315
-9.782120
-32.851456
-53.387375
-72.880165
-93.975464
-118.627266
-146.380997
-174.058533
-197.415222
-213.511124
-222.367249
-226.766327
-230.225266
-234.715775
-239.410645
-241.456985
-237.757019
-226.983276
-210.187790
-190.122696
-169.688782
-150.674118
-133.548523
-118.071426
-104.264656
-92.713028
-84.134384
-78.676666
-75.572525
-73.478737
-71.364227
-69.257645
-68.165283
-69.259956
-72.962761
-78.484589
-84.223045
-88.650032
-91.216042
-92.369576
-92.977310
-93.361908
-92.675781
-89.081482
-80.570755
-65.854034
-44.876495
-18.942108
9.731995
38.456436
64.521667
85.741425
100.894867
109.956024
113.907715
114.286255
112.371429
108.756165
103.270844
95.354126
84.618347
71.323639
56.400879
41.303894
27.657043
17.031189
10.756073
9.762909
14.253601
23.602783
36.400726
50.646851
64.342010
75.904053
84.381042
89.530365
91.655365
91.391022
89.467163
86.470398
82.524719
77.459106
70.948914
62.923584
53.848206
44.752747
36.913879
31.439148
28.937927
29.430054
32.428528
37.071045
42.191345
46.475403
48.730896
48.325745
45.594482
41.936218
39.270020
39.355713
43.043335
49.917664
58.673401
67.732239
75.860352
82.631104
88.269714
93.311523
98.262878
103.380066
108.646729
113.917297
118.904663
123.262939
126.529816
128.402466
128.922974
128.734772
129.241150
132.023071
138.122498
147.105804
156.682281
163.146149
162.583557
152.189819
131.253937
101.091339
64.284485
23.777527
-17.706451
-57.758942
-94.076935
-124.435547
-147.052948
-161.120697
-167.180145
-167.029297
-163.083099
-157.562195
-151.738159
-145.760742
-138.879242
-130.135544
-119.079315
-106.240158
-93.005768
-81.027084
-71.386169
-63.992615
-57.659332
-50.834137
-42.508881
-32.694656
-22.303635
-12.455078
-3.732330
3.778717
10.245956
15.456345
18.698334
19.269882
17.134056
13.302078
9.528244
7.567215
8.282196
11.366264
15.664978
19.840042
23.129105
25.357513
26.712620
27.288944
26.933819
25.345543
22.486616
18.759794
15.063307
12.599998
12.349594
14.893904
20.211012
27.766796
36.604454
45.639320
53.864006
60.684387
66.137405
70.718872
75.313156
80.918152
88.196999
97.148216
106.915642
115.622833
120.690910
119.469574
109.950760
91.565262
65.566803
34.808670
2.908340
-26.711945
-51.818085
-71.725906
-87.056595
-98.977005
-108.517975
-116.283707
-122.534103
-127.440796
-131.281616
-134.409790
-137.049316
-139.109741
-140.352814
-140.602631
-140.067963
-139.326141
-139.080811
-139.754089
-141.283813
-143.196960
-144.886017
-145.833710
-145.678986
-144.446289
-142.878876
-142.843994
-147.266754
-159.322205
-181.087250
-211.825989
-247.543152
-281.753571
-307.583923
-319.978546
-317.062317
-300.036072
-272.070374
-237.167236
-199.542191
-163.563705
-133.530518
-112.738266
-102.040802
-98.740463
-96.855698
-88.779594
-67.984764
-31.304855
20.131302
81.594551
146.575211
208.865448
263.976654
309.604492
345.497162
372.815277
393.430115
409.139923
420.770233
427.766144
428.001953
418.316742
395.489777
357.658417
305.357758
242.042328
173.758301
107.625259
49.927711
4.485649
-28.024033
-49.453568
-62.749718
-70.605370
-74.730637
-76.080673
-75.571205
-74.476204
-74.149818
-75.390938
-77.752190
-79.498016
-78.451294
-73.201218
-63.782829
-51.558411
-38.444145
-25.979851
-14.956505
-5.530441
2.164940
7.617706
10.128593
9.263191
5.381050
-0.190491
-5.417709
-8.260590
-7.288994
-2.069809
6.781601
17.829147
29.386307
40.002556
48.971165
56.513054
63.783028
72.478157
84.094238
99.293365
117.319618
135.827850
151.173782
159.292801
156.939148
142.914856
118.827667
88.857178
58.607376
33.307671
16.178907
7.755306
6.273869
8.785069
12.348553
14.873829
15.329082
13.610073
10.226891
6.005783
1.831963
-1.632339
-4.057732
-5.447571
-5.904305
-5.439606
-3.983391
-1.788231
0.148605
0.035980
-4.317810
-14.535431
-30.914963
-52.136627
-75.721695
-98.846863
-119.113113
-134.762543
-144.649231
-148.490173
-147.189743
-143.246353
-140.445877
-142.583740
-151.622925
-166.545685
-183.443604
-197.107513
-203.303848
-200.254837
-188.706619
-170.929108
-149.298691
-125.458328
-100.601410
-75.935028
-53.122147
-33.933731
-19.561249
-9.948303
-3.896927
0.375275
4.529449
9.663391
16.239014
24.187149
33.044815
42.134048
50.652969
58.026672
64.183853
69.692337
75.481964
82.443085
90.843124
100.129333
109.188156
116.803268
122.098923
124.703873
124.748749
122.515030
118.462631
113.332779
108.130905
104.129074
102.253296
102.667099
104.388870
105.768173
105.038467
101.212219
94.453094
85.781265
76.630676
68.078812
60.522461
53.533768
45.842545
35.573273
20.647827
-0.470718
-28.069397
-60.555634
-94.699631
-126.402191
-152.074493
-169.558868
-178.562500
-180.270981
-176.441345
-168.772034
-158.592575
-147.090225
-135.643463
-125.745697
-118.654465
-114.700302
-112.999680
-111.508133
-107.852386
-100.089249
-87.520523
-70.778732
-51.420120
-31.248627
-11.647919
6.651428
23.428818
38.799606
52.868225
65.624939
76.955353
86.755051
94.942459
101.532578
106.518951
109.969955
111.998337
112.846649
113.030090
113.283691
114.463486
117.218857
121.522858
126.364624
129.776337
129.308105
122.709000
108.815186
87.826538
61.505005
32.602142
4.253952
-20.673218
-40.007828
-52.473465
-57.563080
-55.285263
-46.171371
-31.368744
-12.753418
7.147461
25.396423
39.185791
46.276840
45.216293
35.405823
16.935013
-9.284027
-41.384628
-76.163757
-109.293335
-136.113861
-152.899994
-157.929596
-151.856216
-137.314819
-117.804291
-96.636063
-76.395905
-58.703232
-44.461273
-33.762619
-25.891418
-19.342941
-12.299988
-3.207199
8.530502
22.273560
36.612167
50.143784
62.203445
72.986755
83.187439
93.362289
103.436584
112.526306
118.802658
119.865631
113.316864
97.688766
73.226959
42.429031
9.589203
-20.210648
-42.561050
-55.070770
-57.785446
-52.880768
-43.759216
-33.852005
-25.740250
-20.739716
-19.000046
-19.729706
-21.721237
-23.722961
-24.747604
-24.334854
-22.317673
-18.606491
-13.100037
-5.903900
2.582977
11.474869
19.599335
25.852585
29.310379
29.584518
26.633270
20.600082
11.627777
-0.001541
-13.703232
-28.201660
-41.462234
-51.123322
-55.039719
-52.131531
-42.821625
-28.871017
-12.873718
2.322845
13.977493
19.958298
18.850937
10.542847
-3.478638
-20.318176
-36.550385
-49.680664
-59.146164
-66.250351
-72.719650
-79.167191
-83.948853
-83.788940
-75.625137
-58.356735
-33.717560
-5.540085
21.758118
44.443115
59.803314
66.171173
62.834579
50.409744
31.439621
10.255615
-8.180069
-20.146683
-24.630356
-23.589218
-20.608734
-18.738815
-19.107086
-20.487793
-20.450195
-16.849564
-9.083069
1.451645
11.863663
19.042587
21.157806
18.882095
15.918610
18.235138
31.912659
60.458099
102.414246
150.887970
195.141510
223.978546
229.215424
207.917053
162.430283
99.068832
26.323181
-46.713013
-111.421906
-161.183395
-193.079926
-209.036896
-215.190659
-219.158630
-226.106888
-235.920197
-242.968124
-239.120819
-218.205505
-179.560989
-128.611481
-74.701111
-27.710739
4.815155
19.214905
15.867783
-1.122719
-24.770180
-46.567993
-58.589859
-56.058533
-39.045540
-12.372208
16.667740
41.374878
58.470505
69.170959
77.965889
89.940308
107.656456
129.455414
149.747116
161.452789
159.495117
143.491409
118.301643
92.173126
73.013443
65.137085
67.840546
76.607208
85.814003
91.503418
92.651779
90.683975
87.662216
84.843544
81.992966
78.053055
72.119820
64.315842
55.965336
48.939510
44.705547
43.480949
44.121490
44.592262
42.870724
37.939026
30.162914
21.052162
12.451233
5.738201
1.217083
-1.842224
-4.773262
-8.850861
-14.801933
-22.552094
-31.296219
-39.839165
-47.002892
-51.952721
-54.473846
-54.961517
-54.291893
-53.376114
-52.908684
-53.023750
-53.350632
-53.290779
-52.388649
-50.644775
-48.461601
-46.327538
-44.389458
-42.308891
-39.410004
-35.086472
-29.153305
-22.008270
-14.467422
-7.338547
-1.039032
4.562775
9.968796
15.798920
22.396271
29.758423
37.643021
45.777008
54.125519
62.957840
72.665695
83.414185
94.833847
105.725296
114.202835
118.203171
116.126038
107.446304
92.863861
73.984283
52.884445
31.562805
11.551376
-6.124557
-20.847427
-32.310349
-40.496170
-45.687073
-48.449600
-49.490128
-49.515305
-49.078873
-48.460449
-47.687500
-46.682343
-45.337936
-43.633560
-41.682770
-39.744446
-38.194489
-37.462067
-37.711578
-38.688049
-39.612122
-39.360840
-36.923828
-31.810852
-24.385376
-15.722504
-7.231689
-0.102753
4.908508
7.555420
8.012848
6.703491
4.164825
0.715790
-3.840698
-10.663879
-21.674622
-38.999115
-63.761475
-95.074158
-129.802856
-163.364044
-191.360474
-210.918427
-221.451599
-224.120392
-220.747040
-212.755493
-200.884216
-185.487579
-167.003113
-146.273224
-124.272095
-101.706116
-78.717880
-54.962387
-29.888367
-3.196625
25.004608
54.188416
83.429733
111.409424
136.372986
156.347504
169.767410
176.176224
176.610306
173.335556
168.937256
165.066757
161.840103
158.022934
151.964142
142.866043
131.407852
119.680832
110.385666
105.727127
106.458755
111.197144
116.450180
117.174759
108.330139
86.756760
52.853531
11.113907
-31.070908
-65.987030
-88.152481
-96.021622
-91.866364
-80.082764
-65.097092
-49.828323
-35.353485
-21.759674
-9.022797
2.517242
12.417709
20.702805
28.192276
35.971222
44.410492
52.189621
56.274246
53.167984
40.847504
20.237045
-4.574860
-27.919357
-45.062454
-54.599472
-59.146515
-64.129196
-75.132904
-95.162033
-123.418625
-155.658630
-186.023117
-209.253799
-222.171738
-224.223358
-217.170532
-204.281036
-189.319702
-175.909576
-166.674408
-162.649200
-162.995850
-165.092178
-165.185303
-159.405777
-144.830109
-120.224030
-86.271736
-45.440712
-1.368315
41.887627
80.701729
112.484604
135.959946
151.086868
158.835068
160.785553
158.915207
155.352493
151.854340
149.417389
147.862854
146.046082
142.509583
136.327545
127.789207
118.286133
109.624115
102.996132
98.567230
95.503883
92.570663
88.833977
83.999710
78.273880
71.965714
65.178711
57.794846
49.677658
41.055847
32.621109
25.356033
20.116470
17.180191
16.063202
15.707535
14.928085
12.957306
9.607574
5.022568
-0.718628
-7.836258
-16.724823
-27.657623
-40.395447
-54.112473
-67.525116
-79.226578
-88.090057
-93.539551
-95.676682
-95.079437
-92.567734
-88.972626
-84.944046
-80.957886
-77.503540
-75.185684
-74.635269
-76.098099
-78.850311
-80.909348
-79.321548
-71.136581
-54.679825
-30.343307
-0.530975
31.297302
61.712418
88.036148
108.419968
121.537842
126.303940
122.088516
109.383057
90.263733
68.349670
47.788513
32.057495
22.839142
19.759583
20.873016
23.687042
26.134491
27.154144
26.623413
24.994446
22.893311
20.752472
18.850433
17.451233
16.876648
17.426208
19.139496
21.539093
23.645691
24.379181
23.041656
19.686066
15.163300
10.713501
7.399292
5.765137
5.807343
7.292633
10.032501
14.062531
19.576874
26.841156
36.123566
47.725891
61.817993
78.027069
94.885864
109.628479
118.776001
119.253906
109.703186
91.231232
67.150757
41.798920
18.967194
0.692627
-13.214050
-24.895844
-37.403152
-53.433472
-74.265732
-99.185623
-125.522400
-149.527527
-167.381012
-176.101257
-173.875702
-159.874664
-133.928162
-96.731140
-50.562363
0.193802
49.206680
89.643082
116.305328
127.422760
125.039215
113.866135
99.162155
84.727905
72.222137
61.596588
52.200363
43.775467
36.671570
31.591278
28.969589
28.566101
29.553085
30.842743
31.461502
30.901489
29.183167
26.702698
24.066757
21.786484
20.190384
19.454956
19.777786
21.323578
23.903625
26.406921
26.339188
20.323120
5.131027
-20.712051
-55.938980
-96.732300
-138.117493
-175.701630
-206.779419
-230.130493
-244.921844
-249.885422
-243.490707
-225.071671
-196.370895
-161.818771
-127.466095
-98.760025
-78.453949
-65.811310
-57.427979
-49.083374
-37.681839
-22.340195
-4.252777
14.229309
30.725342
43.724091
52.827225
58.629593
62.328125
65.299850
68.699905
73.311630
79.437012
86.850342
94.817368
102.138092
107.309998
108.942657
106.053177
98.488022
87.101105
73.589706
59.886703
47.623993
37.556519
29.626038
23.376129
18.471313
15.039185
13.446747
13.942749
16.096466
18.790894
20.534790
20.138306
17.174988
12.000000
5.425934
-1.761108
-9.165894
-16.714111
-24.360168
-31.846405
-38.665649
-44.295929
-48.437714
-51.117706
-52.599731
-53.184387
-52.931519
-51.716919
-49.298065
-45.632538
-40.925507
-35.671356
-30.479706
-25.756409
-21.579773
-17.643890
-13.404907
-8.334564
-2.287445
4.449005
11.184052
17.176544
21.893768
25.353668
28.085724
31.012939
35.069153
40.960541
48.988159
58.838501
69.689148
80.128540
88.400940
92.776306
91.994720
85.761902
74.921539
61.243469
46.909393
33.951935
23.721405
16.805084
13.166412
12.355621
13.628693
15.990326
18.271149
19.270691
18.093018
14.538452
9.178467
3.167145
-2.377869
-6.700226
-9.820374
-12.294647
-14.891022
-18.145844
-22.192871
-26.760284
-31.274811
-35.202637
-38.134949
-39.882385
-40.495697
-40.123383
-38.833099
-36.548981
-33.189819
-28.991852
-24.886810
-22.368195
-23.040955
-27.600800
-35.240143
-43.674591
-50.152191
-52.603287
-50.594513
-45.196075
-38.093719
-30.382446
-22.073639
-12.306091
-0.439819
13.189789
27.039093
39.101562
48.048462
53.985413
58.442474
63.589874
71.206238
81.971252
95.278046
109.738953
123.598022
135.115479
142.802795
145.443878
142.289734
133.277374
119.217346
101.701599
82.672363
64.045349
47.276718
33.253082
22.306808
14.363098
9.006943
5.554382
3.098724
0.792114
-1.932999
-5.122711
-8.375488
-11.120209
-12.965591
-13.900909
-14.313278
-14.788406
-15.758865
-17.263298
-18.757355
-19.113228
-16.952034
-10.977959
-0.550713
14.034760
31.336739
48.997795
63.842888
72.306923
70.978104
57.345253
30.610107
-7.695717
-53.777409
-102.354134
-148.026642
-186.698105
-216.220673
-236.236755
-247.269638
-249.882462
-244.438095
-231.467514
-212.298615
-189.218384
-165.064087
-142.182526
-121.774323
-103.676277
-86.744415
-69.696411
-51.643177
-32.396679
-12.319057
7.857995
27.236704
44.854038
59.792076
71.553261
80.182373
86.414886
91.459610
96.712204
103.269760
111.649445
121.619827
132.107925
141.435013
147.434494
148.092041
142.073318
129.174500
110.557968
88.401787
65.342094
43.642632
24.739697
9.027396
-3.827729
-14.457655
-23.451077
-31.069698
-37.292461
-41.911880
-44.754990
-45.760639
-45.200714
-43.627216
-41.832573
-40.702400
-40.809902
-42.437340
-45.396164
-49.215107
-53.377594
-57.419273
-61.115852
-64.282066
-66.754158
-68.225349
-68.350616
-66.914169
-63.899200
-59.602921
-54.519218
-49.205349
-44.091423
-39.458630
-35.397442
-31.865179
-28.726381
-25.724497
-22.504499
-18.703655
-14.081005
-8.671112
-2.894340
2.664731
7.576020
11.820090
15.914469
20.639019
26.753281
34.512096
43.716667
53.846504
64.384659
75.083572
85.994217
97.338814
109.508003
122.918816
138.112915
155.401413
174.301117
192.909027
207.775009
214.549911
209.337418
190.100357
157.563324
115.034035
67.436005
19.995663
-22.830666
-57.844147
-83.267471
-98.623573
-104.797852
-103.895691
-98.884506
-92.802917
-87.984390
-85.202087
-83.576530
-80.957809
-74.524971
-61.861824
-41.845604
-15.647026
12.979439
38.176491
53.738007
55.065399
41.020294
14.439064
-18.864594
-52.179214
-80.090363
-99.844147
-111.334854
-116.165329
-116.339966
-113.458588
-108.560974
-102.474197
-96.183472
-90.744904
-86.990738
-85.063965
-84.359177
-83.762741
-82.276382
-79.513062
-75.963654
-72.657852
-70.636459
-70.426834
-71.824203
-74.078156
-76.204018
-77.362228
-76.964699
-74.754822
-70.700195
-64.991188
-57.966347
-50.017471
-41.503204
-32.548744
-23.033592
-12.648422
-1.056343
11.769958
25.391937
38.815674
50.603939
59.150928
63.096401
61.628868
54.756081
43.345814
28.899260
13.314286
-1.448105
-13.670828
-22.177235
-26.533598
-27.159481
-25.076939
-21.498219
-17.346611
-12.914909
-7.870445
-1.727333
5.699120
14.008698
22.295998
29.629387
35.576126
40.357330
44.732315
49.350281
54.343292
59.213150
63.125885
65.357864
65.703461
64.532089
62.615265
60.753494
59.459503
58.872559
58.817642
58.998184
59.074036
58.730698
57.677734
55.723114
52.867538
49.273010
45.311172
41.510147
38.459076
36.620956
36.236847
37.002808
38.100464
38.436295
37.080597
33.724564
28.813049
23.141479
17.463242
12.102020
7.059402
2.361176
-1.539551
-3.596207
-2.535156
2.599701
12.107666
25.543427
41.969711
60.218887
79.012375
96.894516
112.246384
123.558609
129.800583
130.710297
126.864655
119.275726
109.066589
97.190872
84.442291
71.556839
59.342682
48.511398
39.491043
32.314667
26.667763
22.163025
18.655777
16.275818
15.263763
15.641632
17.000156
18.521397
19.183823
18.229458
15.496595
11.600134
7.709450
5.152858
4.991877
7.561879
12.156202
16.950369
19.178104
15.710236
3.978424
-17.011250
-46.038208
-79.783142
-113.630692
-143.004974
-164.667145
-177.659698
-183.247650
-184.307724
-184.153381
-185.417343
-189.417023
-196.037262
-204.050385
-211.687607
-217.019882
-218.288620
-213.981216
-203.001175
-184.954987
-160.556137
-131.798126
-101.736115
-73.757881
-50.699120
-34.021935
-23.522774
-17.732460
-14.548676
-11.952774
-8.366493
-2.945770
4.572945
13.951828
24.516998
35.414772
45.723907
54.729389
61.914665
67.114548
70.298950
71.560120
71.181419
69.640770
67.601654
65.740288
64.411499
63.495953
62.344677
60.163731
56.450294
51.366871
45.681648
40.509575
36.775620
34.791176
34.095268
33.537380
31.674046
27.366673
20.302795
11.146141
1.389236
-7.144028
-13.081802
-15.877258
-15.907356
-14.133316
-11.599442
-9.138519
-7.221565
-5.917572
-4.795731
-2.890060
1.244148
8.679947
19.362808
31.354095
41.149620
45.153160
41.483795
31.069633
17.414291
5.022469
-2.692589
-4.555298
-1.611107
4.171516
11.507614
20.583328
32.626190
48.854813
69.372772
92.682831
116.141678
136.737808
151.843781
159.651489
159.376526
151.333740
137.020508
119.000900
100.494629
84.540794
72.808403
64.669594
57.140732
45.845543
26.956978
-0.934242
-35.793205
-72.814133
-105.976578
-130.369827
-143.644745
-146.378357
-141.232025
-131.433090
-119.605560
-107.362549
-95.588638
-84.858559
-75.886513
-69.153183
-64.432373
-60.689972
-56.215088
-49.288246
-39.004528
-25.770443
-11.157615
2.707190
13.985631
21.732834
26.106518
27.956701
28.321907
27.948290
27.127998
25.981113
24.735720
23.773169
23.634390
24.653528
26.808031
29.662703
32.699821
35.591599
38.467289
41.772160
46.005287
51.420727
57.771790
64.521942
71.049469
76.989357
82.436409
87.985435
94.532471
102.999435
113.949089
127.139160
141.253510
153.905762
162.026901
162.628036
153.779144
135.273392
108.799576
77.580093
45.422012
15.783127
-8.950211
-27.786545
-40.952408
-49.501434
-54.782867
-58.043427
-60.213959
-61.914185
-63.448059
-65.002182
-66.657257
-68.343811
-69.960938
-71.258118
-72.059631
-72.289246
-72.121826
-72.005524
-72.505371
-74.027039
-76.580414
-79.711334
-82.647003
-84.696381
-85.635986
-85.859192
-86.169220
-87.274292
-89.399750
-92.106201
-94.581421
-95.971710
-95.723877
-93.699829
-90.136627
-85.529938
-80.623444
-76.337189
-73.641968
-73.216766
-74.981415
-77.894287
-80.183228
-79.783844
-75.109406
-65.533691
-51.571899
-34.632019
-16.550323
0.904755
16.444061
29.562988
40.693695
51.174469
62.909088
77.813721
96.952698
119.882751
144.243652
166.221344
181.457642
186.454376
179.736755
162.321381
137.383972
109.212585
81.909576
58.275757
39.345245
24.583984
12.529175
1.703156
-8.746857
-18.751709
-27.623596
-34.601227
-39.390594
-42.554108
-45.130707
-48.165863
-52.122620
-56.690948
-60.939636
-63.711670
-64.024567
-61.446960
-56.481995
-50.738525
-46.986725
-48.518707
-58.024780
-76.291443
-101.438843
-129.308746
-154.805847
-173.625916
-183.490509
-184.447327
-177.976440
-165.955933
-149.898743
-130.805725
-109.595490
-87.430084
-65.759277
-45.888702
-28.598450
-13.852905
-0.721252
12.122620
25.951141
41.388916
58.100098
74.862946
90.019745
102.185669
110.824585
116.490479
120.485352
124.339203
129.229614
135.730072
143.766052
152.841980
162.184052
170.657501
176.747803
178.723999
175.105591
165.175201
149.344513
129.065887
106.339050
83.082642
60.645294
39.793335
20.837708
3.908661
-10.922760
-23.673859
-34.382904
-43.143280
-49.926361
-54.678131
-57.423035
-58.525879
-58.830261
-59.452148
-61.250275
-64.451080
-68.593536
-72.695374
-75.887360
-77.491608
-77.086273
-74.521973
-70.043823
-64.848511
-61.361633
-62.925995
-72.478973
-91.047913
-116.578735
-144.277710
-168.217865
-183.520996
-188.221497
-183.487854
-172.497803
-158.598511
-143.871185
-128.759369
-112.613861
-94.878906
-75.752167
-56.289948
-37.793579
-21.110260
-6.182129
7.702301
21.477936
35.546265
49.407623
61.996613
72.205902
79.500427
84.260742
87.561951
90.571777
93.989197
97.747040
101.240173
103.861237
105.556458
107.078827
109.782043
115.018814
123.314667
133.895172
144.499237
151.989288
153.366180
146.749969
131.982040
110.682602
85.698975
60.142929
36.623459
16.725159
0.923080
-11.127960
-20.269730
-27.522491
-33.796616
-39.754608
-45.695862
-51.488998
-56.685684
-60.815643
-63.505753
-64.677872
-64.568451
-63.566391
-62.093857
-60.484116
-58.943039
-57.626343
-56.643188
-56.024994
-55.809052
-55.781738
-55.666290
-55.172562
-54.124664
-52.600983
-50.903458
-49.472763
-48.667114
-48.581146
-48.972000
-49.196228
-48.488190
-46.231171
-42.135986
-36.412384
-29.703964
-22.901062
-16.810165
-11.956528
-8.328888
-5.509171
-2.785263
0.553368
4.890930
10.174561
15.873444
21.289162
25.825378
29.306183
32.026405
34.678337
38.063721
42.864326
49.410591
57.539749
66.696869
76.059341
84.815063
92.472885
99.184464
105.803818
113.550575
123.431953
135.461761
148.383362
159.833801
167.096695
168.074036
161.777039
148.525467
129.407639
105.951569
79.779175
52.693253
26.691124
3.524288
-15.952347
-32.425419
-47.950119
-65.102615
-85.426682
-108.422592
-131.619308
-151.589371
-165.611633
-172.648331
-173.515656
-169.925339
-163.499756
-155.047928
-144.783981
-132.872223
-119.926147
-107.036652
-95.167343
-84.771896
-75.463837
-66.413651
-56.829926
-46.376240
-35.479378
-25.028164
-16.012587
-8.985849
-3.838455
0.187916
4.156757
9.003884
15.212671
22.517084
30.127281
37.033043
42.486050
46.350819
49.164963
51.950829
55.720528
61.073063
67.847557
75.159927
81.637413
85.992043
87.489075
86.414429
84.220703
83.079765
85.215157
91.877090
102.670670
115.459473
126.953156
133.791534
133.689865
125.973068
111.547569
92.326965
70.475357
47.980247
26.461029
7.205532
-8.822990
-21.079185
-29.570610
-34.909286
-38.126122
-40.302212
-42.245892
-44.289959
-46.260597
-47.773918
-48.529095
-48.561775
-48.358887
-48.683689
-50.281128
-53.504513
-58.098351
-63.285809
-67.957428
-71.050377
-71.950249
-70.546158
-67.172493
-62.523628
-57.351048
-52.306507
-47.853161
-44.140900
-41.017799
-38.204021
-35.370419
-32.188919
-28.461868
-24.091251
-19.134579
-13.719318
-8.138065
-2.740883
2.176735
6.471581
10.229031
13.654243
17.000568
20.473515
24.260921
28.529369
33.486385
39.264553
45.885929
53.102978
60.355721
67.088089
72.919136
77.992874
83.024620
89.147812
97.482224
108.577744
121.969666
135.863205
147.494965
153.721939
152.016602
141.359680
122.618896
98.250244
71.524750
45.524014
22.411465
3.182350
-12.090714
-23.865044
-32.667065
-38.859016
-42.742661
-44.660961
-45.108582
-44.881451
-44.795769
-45.582935
-47.620323
-50.886497
-55.219292
-60.627106
-67.526077
-76.596901
-88.362312
-102.554832
-117.818275
-131.996094
-142.762131
-148.409424
-148.329330
-142.835159
-132.818542
-119.348091
-103.539085
-86.791832
-70.678940
-56.644821
-45.366093
-36.421566
-28.548927
-20.522785
-12.477015
-6.391596
-5.638768
-13.421584
-30.909981
-56.232704
-84.775513
-110.965454
-130.346375
-141.255966
