1416589621.000000
64.000000
0.000000
0.000000
0.000000
0.000000
0.000000
0.000000
0.000000
0.000000
0.000000
-0.006691
-0.011527
-0.008813
0.006441
0.030864
0.049171
0.039020
-0.015848
-0.111462
-0.225614
-0.306945
-0.316112
-0.246066
-0.137356
-0.068345
-0.122467
-0.347947
-0.731878
-1.220427
-1.698149
-2.076971
-2.323751
-2.483265
-2.662352
-2.979915
-3.503906
-4.207213
-5.013499
-5.701684
-6.108101
-6.176306
-6.022997
-5.918092
-6.172356
-6.978564
-8.288868
-9.899536
-11.278477
-12.025523
-12.018094
-11.559242
-11.309675
-12.006700
-14.090680
-17.435102
-21.495003
-25.131971
-27.482233
-28.286963
-28.141289
-28.312922
-30.178183
-34.532249
-41.128571
-48.908333
-55.940006
-60.757896
-62.931355
-63.398636
-64.120331
-67.177765
-73.746986
-82.255730
-92.644142
-103.261650
-112.983269
-120.618629
-124.640640
-123.545090
-117.027916
-107.265739
-99.024933
-98.039444
-107.261864
-124.720779
-143.056595
-152.262939
-144.080109
-115.561813
-69.866196
-13.993103
44.788269
102.249023
157.282928
210.407608
261.490448
308.554077
348.348145
377.941956
395.987305
402.988892
401.050232
392.271545
377.846771
357.900513
331.825867
299.233459
260.695801
218.033890
173.966812
131.488083
92.868408
59.157745
30.150330
4.813034
-18.009216
-39.014786
-58.186401
-74.935349
-88.469070
-98.309128
-104.546463
-107.830002
-109.129684
-109.361786
-109.117996
-108.567398
-107.541275
-105.747421
-103.003830
-99.347946
-95.026352
-90.394684
-85.766243
-81.324478
-77.109917
-73.053513
-69.060005
-65.070930
-61.075813
-57.113953
-53.238243
-49.496971
-45.915840
-42.502571
-39.261967
-36.169697
-33.241859
-30.491089
-27.931911
-25.577103
-23.439327
-21.518074
-19.822666
-18.360937
-17.132414
-16.141356
-15.382172
-14.849340
-14.528944
-14.426615
-14.498379
-14.741968
-15.147051
-15.706974
-16.410589
-17.250921
-18.218313
-19.301720
-20.517258
-21.803200
-23.159544
-24.580137
-26.059929
-27.612862
-29.246082
-30.955421
-32.738968
-34.611118
-36.442245
-38.152485
-39.607761
-40.614471
-40.915173
-40.236263
-38.304157
-34.873940
-29.813103
-22.866997
-14.037437
-3.449207
8.673721
22.024479
36.236248
50.891514
65.562294
79.116508
91.448364
102.367920
111.691483
119.260162
124.935402
128.559464
129.973419
129.433487
126.930870
122.093658
114.581230
104.271515
91.278236
75.947815
58.831097
40.663162
22.273216
4.034481
-12.810665
-27.460350
-39.446648
-48.602032
-54.986187
-58.861530
-60.592388
-60.618538
-59.500824
-57.544907
-55.090137
-52.397522
-49.637035
-46.892643
-44.203873
-41.588600
-39.041931
-36.605434
-34.195404
-31.849081
-29.593002
-27.431528
-25.371918
-23.400021
-21.509489
-19.690138
-17.965710
-16.296604
-14.702785
-13.205166
-11.808069
-10.509408
-9.300941
-8.183715
-7.141274
-6.182618
-5.283253
-4.451399
-3.703104
-3.033312
-2.431194
-1.905779
-1.440563
-1.034510
-0.684324
-0.375374
-0.111706
0.116379
0.291487
0.434196
0.513050
0.564251
0.579832
0.582933
0.605404
0.658447
0.747173
0.856167
0.954357
1.018213
1.025789
0.990801
0.939560
0.903100
0.914862
0.971987
1.060466
1.131697
1.135618
1.080908
0.974653
0.865314
0.837296
0.915841
1.121872
1.382841
1.610998
1.703478
1.622835
1.420321
1.227658
1.215312
1.510384
2.109158
2.869963
3.549809
3.893696
3.805153
3.384664
2.939854
2.850327
3.378374
4.532221
6.023468
7.349794
8.048386
7.916725
7.152103
6.291433
5.976469
6.661333
8.318956
10.510139
12.438780
13.472839
13.350975
12.301029
10.988880
10.065575
10.036581
11.176666
13.628721
17.276768
21.504202
24.840796
25.077869
19.953863
8.326828
-8.849537
-28.547298
-46.711113
-59.880791
-66.564468
-67.462219
-64.639763
-60.087265
-54.786552
-48.512493
-40.792923
-31.420336
-21.340122
-12.116379
-5.113539
-0.756628
1.734455
3.701921
6.439861
10.380289
14.931826
18.891731
21.152946
21.308006
19.727861
17.398436
15.294109
14.125681
14.110567
15.061726
16.445082
17.705223
18.369411
18.149750
16.994505
15.091406
12.858301
10.705767
8.846258
7.152065
5.267990
2.850721
-0.272953
-3.997084
-7.940977
-11.310746
-13.399854
-13.854067
-12.834393
-10.920712
-8.923268
-7.784534
-8.403228
-11.555983
-17.309807
-25.102230
-33.910118
-42.341541
-48.797073
-52.035702
-51.811817
-48.826046
-44.580669
-40.075943
-35.762745
-31.821512
-28.419113
-25.681107
-23.771948
-23.057806
-23.578640
-25.047691
-26.082422
-24.923176
-20.074787
-11.320873
0.986757
16.357758
34.186737
54.368156
72.420883
84.292221
89.662827
91.288986
91.549179
91.294838
90.414436
88.481316
85.730148
82.429695
79.392532
77.296654
75.888138
74.155243
71.219574
68.418839
64.509537
59.411819
53.397858
47.283413
41.786083
37.098515
32.935974
29.072834
25.628769
22.793339
21.195213
21.237984
23.176085
26.762352
30.840376
33.773079
33.923714
30.153301
21.996269
10.263973
-3.555901
-17.463589
-29.676781
-39.146698
-45.714729
-49.784248
-51.973930
-52.768936
-52.074745
-49.664673
-45.347977
-39.373421
-32.429100
-25.444946
-19.389114
-15.000412
-12.888847
-13.339279
-16.341537
-21.431580
-27.568405
-33.294250
-37.281662
-38.906403
-38.578812
-37.659210
-37.642273
-39.504303
-43.082886
-47.272766
-50.585785
-51.825119
-50.590729
-47.232956
-42.542557
-37.244980
-31.829041
-26.371918
-20.731857
-14.704758
-8.151749
-1.129883
6.242615
13.730026
21.141129
28.357056
35.399414
42.399017
49.604996
57.306198
65.770523
75.059250
84.876755
94.512665
102.862534
108.681274
110.798874
108.422134
101.313446
89.777313
74.650009
57.049957
38.174454
19.085632
0.608429
-16.715546
-32.513214
-46.409271
-58.067352
-67.194153
-73.681335
-77.711060
-79.768982
-80.479980
-80.389862
-79.835022
-78.925720
-77.750366
-76.394653
-74.974976
-73.597565
-72.225861
-70.626770
-68.537079
-65.822906
-62.531403
-58.933929
-55.341583
-51.995422
-48.908478
-45.911987
-42.823212
-39.585480
-36.305511
-33.214447
-30.531281
-28.273682
-26.219269
-24.007355
-21.200958
-17.441711
-12.517365
-6.446014
0.541595
8.025055
15.539062
22.752777
29.761475
37.172821
45.942413
57.013702
70.788330
86.684204
103.006836
117.221436
126.603577
128.915222
123.030334
109.223572
89.034302
64.845062
39.316803
14.867676
-6.758881
-24.591461
-38.409882
-48.511749
-55.480164
-59.999634
-62.765137
-64.453247
-65.644104
-66.791443
-68.082672
-69.476654
-70.712097
-71.472229
-71.628326
-71.260162
-70.627960
-69.975677
-69.399811
-68.719635
-67.618378
-65.840546
-63.266693
-59.977356
-56.080536
-51.606201
-46.489349
-40.594818
-33.854004
-26.278778
-17.896210
-8.763550
1.009552
11.280762
21.772552
32.179871
42.204498
51.665619
60.468353
68.607574
76.149048
83.168274
89.681854
95.589752
100.631622
104.600800
107.505981
109.879272
112.740326
117.136292
123.490204
130.925049
137.094330
138.560089
131.679901
113.556427
82.944275
40.793442
-9.623901
-63.107910
-113.543304
-155.272308
-184.380035
-199.497299
-201.800049
-194.124985
-179.946365
-162.408234
-143.982788
-126.460052
-111.194702
-99.103882
-90.494659
-84.961700
-81.446854
-78.567902
-75.023407
-69.906433
-62.878738
-54.090012
-44.092300
-33.709351
-23.866486
-15.270782
-8.314423
-2.935089
1.316055
5.014709
8.700409
12.683060
17.004089
21.489777
25.880020
29.937576
33.578384
36.909561
40.169342
43.652863
47.488235
51.539429
55.361237
58.399857
60.281197
61.003128
61.061111
61.197517
62.101067
64.061119
66.883835
69.986992
72.637405
74.154671
74.039635
72.026215
67.935883
61.698662
53.338146
43.020584
31.227749
18.691166
6.441162
-4.367634
-12.713470
-17.987919
-20.242794
-20.258310
-19.289219
-18.555761
-18.828716
-20.057714
-21.554327
-22.422441
-22.114323
-20.754704
-19.021362
-17.848650
-17.850098
-19.247959
-22.161388
-26.883871
-33.875050
-43.199020
-53.817383
-63.375786
-69.063858
-69.057396
-64.005646
-57.125916
-52.814262
-54.321537
-61.759834
-71.937347
-79.979874
-82.069374
-77.423538
-68.586281
-59.757515
-54.468552
-53.965302
-57.049858
-61.366249
-64.913773
-66.971222
-67.933792
-68.377678
-68.170700
-66.083878
-60.356964
-49.639160
-33.824875
-14.257416
6.619537
26.213486
42.545334
54.788086
63.217300
68.822739
72.815186
76.100418
79.113190
81.785202
83.767120
84.708069
84.501495
83.457764
82.201630
81.478912
81.751923
82.931427
84.304291
84.804718
83.512543
80.073547
74.799988
68.586426
62.421082
57.045929
52.692291
49.148499
45.953979
42.754669
39.460388
36.332306
33.808716
32.246643
31.674683
31.819611
32.309753
32.915710
33.810486
35.418976
38.189667
42.309570
47.564514
53.411072
59.235779
64.608368
69.342529
73.465271
77.147705
80.740082
84.773163
89.862823
96.576050
105.102081
114.891144
124.780304
133.092285
138.133881
138.498749
133.312805
122.280670
105.695221
84.402740
59.777679
33.649689
8.035828
-15.189941
-34.642700
-49.652557
-60.281418
-67.111206
-71.003357
-72.885330
-73.544067
-73.586349
-73.367203
-73.015610
-72.372818
-71.146332
-69.058807
-66.053940
-62.390671
-58.516357
-54.903336
-51.805038
-49.111496
-46.505234
-43.600235
-40.116028
-36.041641
-31.505196
-26.635513
-21.411530
-15.616478
-8.958488
-1.287453
7.288452
16.387505
25.584675
34.594933
43.460426
52.538876
62.487785
73.992966
87.593765
103.391724
120.826279
138.373016
153.495026
163.000916
163.812912
153.929596
133.202301
103.531174
68.356445
31.732742
-2.759781
-32.674179
-56.852509
-75.237946
-88.317657
-96.789520
-101.314171
-102.521370
-101.138000
-98.100723
-94.465973
-91.204102
-88.929398
-87.703857
-87.080719
-86.370834
-84.984695
-82.716705
-79.798996
-76.695618
-73.784882
-71.231400
-68.875793
-66.378357
-63.434784
-59.861252
-55.646622
-50.856522
-45.508362
-39.467041
-32.562073
-24.665344
-16.057281
-7.569794
-0.501495
3.771515
4.369751
1.252319
-4.758728
-12.418579
-20.537018
-28.387451
-35.806793
-42.885864
-49.886230
-56.937592
-64.023590
-70.910645
-77.216980
-82.355164
-85.673065
-86.595093
-84.827667
-80.604950
-74.603851
-67.738312
-60.884308
-54.606689
-49.117950
-44.324097
-40.144653
-36.555267
-33.673065
-31.716721
-30.786377
-30.690674
-30.892548
-30.564865
-28.904480
-25.416656
-20.108078
-13.462280
-6.325134
0.299316
5.284271
7.529343
6.116852
0.667679
-8.326035
-19.315964
-30.005508
-38.122086
-42.225220
-42.310928
-39.482391
-35.164810
-30.094818
-23.839279
-15.247566
-3.374390
11.500053
27.775719
42.936424
54.741013
62.067581
65.162247
65.233818
63.608932
61.203690
58.351147
55.103859
51.533825
47.974289
44.920021
42.742393
41.588531
41.291611
41.551338
41.963428
42.225391
42.144798
41.683731
40.924263
39.969276
38.945644
37.865429
36.637226
35.143890
33.295265
31.150412
28.879023
26.700224
24.714401
22.942081
21.269423
19.695091
18.332026
17.480791
17.423904
18.334438
20.173763
22.781311
26.001740
29.659908
33.597511
37.599770
41.426495
44.943153
48.201000
51.489262
55.037132
58.778759
62.056316
63.757355
62.666580
58.005466
49.791031
38.862854
26.470644
13.863840
1.981628
-8.641783
-17.755695
-25.273769
-31.196268
-35.629974
-38.770065
-40.932041
-42.446228
-43.609299
-44.684208
-45.807034
-47.148415
-48.788906
-50.799793
-53.181862
-55.875542
-58.887753
-62.251831
-66.071220
-70.429428
-75.281342
-80.409172
-85.294060
-89.192360
-91.183823
-90.290695
-85.763245
-77.241333
-64.975601
-49.796661
-32.957832
-15.786275
0.663984
15.758326
29.233343
41.038918
51.116726
59.351257
65.623276
69.954819
72.655960
74.260208
75.445374
76.867775
79.057396
82.347382
86.758865
91.926117
96.952019
100.547829
101.290565
98.049423
90.395981
78.737602
64.246078
48.535603
33.198360
19.547445
8.345522
-0.184084
-6.242476
-10.293175
-12.865349
-14.484030
-15.644184
-16.640036
-17.627773
-18.582655
-19.392376
-19.941696
-20.223415
-20.468840
-21.003803
-22.136852
-24.038830
-26.543383
-29.236507
-31.590496
-33.132534
-33.596451
-32.955471
-31.348888
-29.037167
-26.300076
-23.378063
-20.460909
-17.622128
-14.862072
-12.063221
-9.116724
-5.951750
-2.654320
0.516979
3.230862
5.228184
6.556824
7.651260
9.250042
12.129646
16.781830
23.165493
30.617195
37.940903
43.602978
46.098129
44.202694
37.281612
25.450085
9.688950
-8.332195
-26.496460
-42.684795
-55.212166
-63.104824
-66.138885
-64.749908
-59.826996
-52.491467
-43.957573
-35.503529
-28.317455
-23.396614
-21.372196
-22.329060
-25.770115
-30.663628
-35.731964
-39.769875
-41.910568
-41.792313
-39.431469
-35.143307
-29.321194
-22.444801
-15.094765
-7.982750
-1.842854
2.789005
5.787312
7.497765
8.619411
9.943596
12.161789
15.753105
20.858227
27.302315
34.611610
42.017353
48.699146
54.060677
57.937786
60.679188
63.050133
65.959206
70.151810
76.026733
83.417603
91.590988
99.204620
104.546555
105.948120
102.239632
93.236382
79.848076
63.811935
47.138294
31.471649
17.723091
6.000519
-4.129745
-13.224304
-21.626213
-29.292801
-35.879356
-40.963974
-44.297882
-46.005661
-46.537796
-46.464211
-46.258789
-46.112679
-46.025215
-45.955353
-45.969933
-46.227165
-46.891754
-48.000107
-49.302864
-50.414673
-50.896172
-50.492363
-49.225380
-47.349129
-45.261711
-43.253326
-41.502258
-39.938766
-38.316711
-36.227554
-33.239716
-28.988327
-23.375534
-16.573563
-9.059265
-1.407364
5.907410
12.661087
18.956589
25.099838
31.519440
38.547745
46.489975
55.501175
65.428940
75.657562
84.949493
91.634796
94.000610
90.828476
81.723923
67.151428
48.168259
25.976471
1.846390
-23.020401
-47.408539
-70.081177
-89.936783
-106.278656
-118.940277
-128.287567
-135.104263
-140.325058
-144.874054
-149.498993
-154.673889
-160.559418
-166.894073
-173.090912
-178.318909
-181.873550
-183.298096
-182.610031
-180.284637
-176.991730
-173.491638
-170.304352
-167.573441
-165.031586
-162.205505
-158.597794
-153.879303
-147.954239
-140.727661
-132.190338
-122.242035
-110.878166
-98.285721
-84.896301
-71.269348
-57.884674
-44.901306
-32.052231
-18.744888
-4.356903
11.405899
28.235397
45.242676
61.215515
75.017303
85.846008
93.459656
98.036713
100.121490
100.458282
99.867584
99.107452
98.791321
99.312897
100.807251
103.239471
106.517883
110.480286
114.872742
119.230042
122.902100
125.200745
125.645325
124.200989
121.346802
117.934509
114.802673
112.446350
110.855469
109.527649
107.764893
104.915100
100.688721
95.367676
89.750305
84.825439
81.462524
79.909302
79.741577
80.040283
79.859314
78.627686
76.438477
73.903503
71.819702
70.861633
71.353882
73.380798
76.895386
81.881287
88.216125
95.541809
103.049500
109.486694
113.385498
113.562866
109.588867
102.106140
92.697388
83.258850
75.097168
68.292236
61.649414
53.444946
42.397644
28.555725
13.354553
-1.168640
-13.407349
-22.980164
-30.623413
-37.537598
-44.385132
-50.982605
-56.454895
-59.977173
-61.433533
-61.292603
-60.272766
-58.668640
-56.355469
-53.153564
-49.434937
-46.248535
-44.869629
-45.910522
-48.672668
-51.275879
-51.449280
-47.663513
-39.850708
-29.313538
-17.856812
-6.752563
3.739746
14.445312
26.421265
40.340698
56.025085
72.556152
88.607178
102.708130
113.533325
119.882385
121.057678
116.780945
107.433960
94.110413
78.250671
61.512390
45.370056
30.998596
19.093201
9.943787
3.432922
-0.912964
-3.735657
-5.691223
-7.160767
-8.199402
-8.451111
-7.483582
-5.057861
-1.435272
2.610840
6.084198
8.128937
8.376068
7.006104
4.620331
1.963745
-0.264374
-1.608887
-1.943878
-1.391022
-0.335785
0.827881
1.834045
2.702637
3.800079
5.659180
8.744843
13.130676
18.540375
24.458435
30.514343
36.628723
42.987732
49.771362
56.867737
63.789551
69.858948
74.471741
77.175476
77.723907
75.915131
71.489304
64.190430
54.005615
41.371536
27.202209
12.699051
-1.002869
-13.067688
-23.137650
-31.202545
-37.376701
-41.783279
-44.490128
-45.493935
-44.923317
-43.107643
-40.608238
-38.210430
-36.669765
-36.439377
-37.467159
-39.131538
-40.591534
-41.213284
-40.885910
-40.134041
-39.832031
-40.675949
-42.685394
-45.179298
-46.948395
-46.839836
-44.137733
-38.780640
-31.294487
-22.662125
-14.296204
-7.900116
-5.275955
-7.772018
-15.744812
-28.257187
-43.248886
-58.259506
-71.249573
-81.201981
-88.009705
-91.977051
-93.141846
-91.070511
-85.074860
-74.759460
-60.505859
-43.629272
-26.106140
-10.037659
2.929413
11.908844
16.942871
18.693115
18.164337
16.231354
13.505768
10.343292
7.043152
3.936340
1.450653
-0.125793
-0.843903
-1.168732
-1.919403
-3.868164
-7.439575
-12.518036
-18.513458
-24.704956
-30.418762
-35.330261
-39.480927
-43.196228
-46.818146
-50.528870
-54.261566
-57.730774
-60.597321
-62.612671
-63.717682
-63.981354
-63.458984
-62.190308
-60.159698
-57.359039
-53.694061
-48.980133
-42.963409
-35.396423
-26.210541
-15.749023
-4.686676
6.197357
16.287079
25.483246
34.120361
42.785858
51.915619
61.583893
71.506958
81.060638
89.500885
95.865997
99.149658
98.438263
93.207672
83.654480
70.766693
56.183319
41.717133
28.901459
18.600189
10.975494
5.560394
1.591125
-1.706787
-4.963226
-8.437286
-12.045746
-15.468750
-18.376770
-20.643433
-22.487488
-24.371490
-26.665680
-29.512695
-32.690826
-35.862549
-38.742493
-41.280060
-43.554169
-45.543884
-46.994751
-47.381378
-46.259186
-43.462158
-39.315155
-34.399536
-29.336578
-24.424408
-19.544678
-14.372528
-8.550751
-2.032410
4.977295
11.990234
18.432922
23.872864
28.100037
31.299805
34.109070
37.506287
42.450623
49.373718
57.709167
65.879761
71.671509
73.048584
68.940125
59.568237
46.280823
31.004028
15.529114
1.090393
-11.634277
-22.364136
-30.988464
-37.370972
-41.527466
-43.676880
-44.304504
-44.153870
-43.900635
-44.066833
-44.775024
-45.918884
-47.249329
-48.624573
-50.105042
-51.897949
-54.159241
-56.840881
-59.615051
-61.967224
-63.395508
-63.560181
-62.376343
-59.926636
-56.359009
-51.926208
-46.864563
-41.508240
-36.153381
-31.000366
-26.032166
-21.083191
-15.888184
-10.256836
-4.211304
2.032593
8.170044
13.944336
19.243835
24.176025
28.992737
34.004150
39.582153
46.025208
53.556396
62.091003
71.148804
79.734497
86.439575
89.649841
88.009583
80.881348
68.629150
52.566528
34.600708
16.689087
0.446777
-13.180847
-23.826843
-31.592102
-36.843262
-40.149048
-42.110779
-43.354675
-44.402588
-45.549255
-46.817871
-47.988220
-48.739502
-48.864929
-48.508423
-48.124878
-48.352600
-49.734985
-52.398804
-55.958862
-59.617859
-62.400269
-63.557800
-62.739685
-60.069702
-55.974854
-50.971558
-45.518005
-39.960876
-34.421814
-28.898621
-23.194885
-17.008118
-10.085266
-2.454041
5.483704
13.075867
19.550903
24.345276
27.432861
29.358276
31.173462
34.044800
38.925659
46.107910
55.100525
64.595337
72.754883
77.592896
77.492310
71.651031
60.344543
44.922852
27.378571
9.841888
-6.025848
-19.482697
-30.726166
-40.552551
-49.765625
-58.810303
-67.590210
-75.805237
-83.334320
-90.570770
-98.291687
-107.228516
-117.534546
-128.517151
-138.862946
-147.143188
-152.485229
-154.971375
-155.630341
-156.049103
-157.695557
-161.423187
-167.108215
-173.707886
-179.658325
-183.452347
-184.190887
-182.070053
-178.500458
-175.720718
-175.931732
-180.245621
-187.903259
-196.214554
-201.369965
-199.836624
-189.688751
-171.268723
-146.830124
-119.545006
-92.164719
-66.230362
-42.017445
-18.987015
3.629913
26.484138
49.985931
74.226761
98.671906
121.822769
141.102692
153.180298
154.924500
144.484863
122.260956
91.182251
56.202209
23.156250
-2.602905
-17.341095
-19.623108
-10.211792
8.334656
32.588684
58.926086
84.218994
106.142761
123.332275
135.343323
142.462341
145.530823
145.656372
144.005005
141.616638
139.301331
137.516418
136.332153
135.497131
134.466431
132.718567
129.919373
126.090942
121.591003
116.969299
112.761597
109.285217
106.632812
104.653076
103.017029
101.339478
99.272766
96.694885
93.727112
90.786865
88.420410
87.239746
87.676636
89.900024
93.642822
98.221069
102.510498
105.240479
105.221313
101.696167
94.591553
84.482544
72.385132
59.446533
46.558228
34.320190
23.092407
13.162109
4.870117
-1.403320
-5.400024
-7.135132
-7.040771
-5.842285
-4.324585
-3.102051
-2.466431
-2.399414
-2.775269
-3.489136
-4.571533
-6.089478
-8.022827
-10.150513
-12.062988
-13.299683
-13.480835
-12.240356
-9.240845
-4.104370
3.466064
13.433960
25.253784
37.853516
50.012085
60.824463
70.080933
78.304077
86.360718
95.008301
104.440552
114.295532
123.972412
132.876465
140.624634
146.974609
151.735962
154.705322
155.849854
155.458862
154.187988
152.841187
151.944580
151.281372
149.799927
145.963867
138.283691
126.020630
109.484619
89.871887
68.869751
48.064697
28.549866
10.908386
-4.628662
-18.015625
-29.232910
-38.312622
-45.446106
-50.987305
-55.424805
-59.146301
-62.478149
-65.474487
-68.070435
-70.033752
-71.128662
-71.215942
-70.277405
-68.491516
-66.152161
-63.575195
-60.859314
-57.852356
-54.269714
-49.915527
-44.880615
-39.589050
-34.631226
-30.431396
-27.162964
-24.649109
-22.560364
-20.598450
-18.590576
-16.524841
-14.536804
-12.725586
-11.154053
-9.677063
-7.927795
-5.365540
-1.534729
3.695618
9.855103
16.049194
21.147308
24.175049
24.545258
22.052795
16.633057
8.443207
-2.023132
-13.697449
-24.907806
-33.658203
-38.493408
-39.017792
-36.271851
-32.182068
-28.811859
-27.433685
-28.219513
-30.398254
-32.885925
-34.821167
-35.761536
-35.656891
-34.636292
-32.732666
-30.005341
-26.720276
-23.524353
-21.283173
-20.875061
-22.695145
-26.462677
-31.228043
-35.697296
-38.724442
-39.758163
-38.858276
-36.718964
-34.237396
-32.103363
-30.652420
-29.771408
-29.062302
-28.173981
-26.912552
-25.359314
-23.608109
-21.699783
-19.433258
-16.536011
-12.713593
-7.957458
-2.544403
3.087296
8.542557
13.669754
18.671829
24.036453
30.336975
37.976387
47.006897
56.921555
66.678360
74.798294
79.780022
80.514900
76.738556
69.040909
58.739681
47.340637
36.085411
25.733150
16.543030
8.530341
1.627665
-4.273842
-9.381826
-14.117626
-18.875835
-23.804909
-28.528770
-32.372208
-34.737396
-35.669846
-35.973328
-36.877823
-39.433868
-43.902878
-49.723572
-55.910690
-61.661774
-66.775467
-71.513634
-76.251968
-80.946548
-85.108566
-87.983383
-89.163330
-88.813477
-87.722351
-86.986893
-87.533966
-89.768448
-93.325272
-97.252228
-100.274841
-101.213364
-99.498169
-95.289841
-89.481674
-83.332382
-78.065765
-74.292252
-71.969345
-70.458755
-68.874695
-66.508133
-63.006393
-58.487228
-53.344620
-48.054276
-42.949570
-38.110336
-33.373833
-28.376572
-22.737305
-16.155640
-8.690956
-0.855576
6.173149
10.839508
11.652695
7.953918
0.614143
-7.893730
-14.128433
-14.854309
-8.339401
5.050842
23.049873
42.557896
60.934074
76.917870
90.638885
103.035217
114.857208
126.106445
135.878448
142.896210
146.121735
145.192017
140.408508
132.377106
121.665161
108.622833
93.550819
77.044540
60.235291
44.574512
31.369234
21.190277
13.476595
6.759495
-0.646441
-9.736940
-20.303890
-30.879133
-39.408638
-44.158348
-44.544006
-41.326675
-36.328156
-31.593014
-28.606741
-27.878483
-28.984123
-31.037403
-33.203568
-34.805412
-35.425705
-34.701157
-32.400894
-28.542267
-23.642765
-18.727306
-15.074219
-13.660995
-14.681660
-17.332607
-19.958611
-20.617222
-17.638565
-10.082115
2.078674
18.039215
36.305573
55.071678
72.423218
86.634010
96.363670
100.935783
100.303780
95.195274
86.744209
76.240227
64.788094
53.216545
42.110786
32.022110
23.480782
16.845032
12.162460
9.074852
6.903984
5.049728
3.260918
1.608505
0.278252
-0.807526
-2.169922
-4.497025
-8.352737
-13.673660
-19.795624
-25.730957
-30.701874
-34.322922
-36.679672
-38.041077
-38.582413
-38.300125
-37.133972
-35.169907
-32.691101
-30.149796
-27.920135
-26.168167
-24.782532
-23.414322
-21.755920
-19.653320
-17.126129
-14.315628
-11.369492
-8.198593
-4.628098
-0.336853
4.934799
11.277664
18.512604
26.200363
33.764221
40.668854
46.522614
51.184753
54.531891
56.418518
56.454834
54.202667
49.326935
41.885803
32.467865
22.071777
11.842712
2.680695
-4.957550
-11.131104
-16.222076
-20.690521
-24.986084
-29.517120
-34.895416
-41.952637
-51.611603
-64.300598
-79.475281
-95.396973
-109.598969
-119.819427
-125.019012
-125.797333
-124.003571
-121.662659
-119.877136
-118.357513
-115.794128
-110.772247
-102.708801
-92.006073
-79.775513
-67.044250
-54.217499
-41.025635
-26.980377
-11.950897
3.566895
18.508331
31.662415
41.958252
48.658112
51.342285
49.829987
44.335236
35.630554
25.194641
15.105804
7.620636
4.606781
7.109314
15.151733
27.802887
43.523651
60.396057
76.403564
89.635345
98.574280
102.374390
101.198090
96.108124
88.687988
80.600372
73.095673
66.866211
62.058716
58.441406
55.588013
52.966888
50.108276
46.654816
42.462463
37.487518
31.642548
24.732239
16.605438
7.384460
-2.420776
-12.003540
-20.505371
-27.293732
-32.192230
-35.368530
-37.106537
-37.600647
-36.817444
-34.723022
-31.510498
-27.823212
-24.652283
-23.053497
-23.611359
-26.106171
-29.540558
-32.429199
-33.364105
-31.526154
-26.980011
-20.526672
-13.281036
-6.086578
0.737457
7.382385
14.171509
21.177155
28.096588
34.353333
39.513336
43.635437
47.412476
51.907928
57.940765
65.652710
74.074158
81.436829
85.803925
85.808380
81.161926
72.652283
61.622223
49.332611
36.590271
23.747589
10.939056
-1.524689
-13.130249
-23.248535
-31.422668
-37.513916
-41.761719
-44.595123
-46.543793
-48.037903
-49.362366
-50.644287
-51.889252
-53.081177
-54.276917
-55.663849
-57.568665
-60.327698
-64.103943
-68.633484
-73.312073
-77.280090
-79.858856
-80.885132
-80.802032
-80.459686
-80.660034
-81.636597
-82.890656
-83.385742
-82.181274
-79.013611
-74.662537
-70.613800
-68.534515
-69.373047
-72.968872
-78.117188
-83.070526
-86.241913
-86.882263
-85.294586
-82.642639
-80.568207
-80.855499
-85.040436
-94.030365
-107.448212
-123.082672
-136.684204
-142.808136
-136.496338
-115.380615
-80.925964
-38.373688
5.047546
42.607788
70.233215
87.297699
95.894806
99.202606
99.976349
99.864532
99.609558
99.637848
100.599304
103.211029
107.955322
114.659088
122.338104
129.385071
134.091095
135.070892
131.526108
123.379883
111.167831
95.871765
78.698090
60.760117
42.867493
25.390732
8.455154
-7.691742
-22.320557
-34.171555
-41.821457
-44.373276
-41.931564
-35.709854
-27.458572
-18.644440
-9.829010
-0.690842
9.339905
20.266846
31.052765
39.748108
44.370178
43.720001
37.983673
28.589905
17.797668
7.844391
0.579819
-2.746246
-1.388199
4.897888
15.796295
30.256287
46.423553
61.857590
74.084671
81.249298
82.587051
78.542282
70.349503
59.503281
47.200211
33.978317
19.973618
5.257843
-9.780960
-24.275757
-37.137421
-47.597000
-55.785461
-62.815460
-70.415283
-80.257454
-93.185699
-108.882294
-125.871201
-142.197357
-155.987061
-166.157990
-172.542953
-175.825897
-177.147232
-177.690521
-178.415070
-179.928619
-182.385651
-185.550262
-188.999771
-192.253876
-194.963165
-196.894119
-197.825363
-197.376297
-194.857483
-189.407990
-180.196533
-166.634766
-148.517700
-126.044609
-99.721542
-70.344894
-39.085434
-7.454391
22.886017
50.540497
74.865646
96.303452
116.327194
137.004761
160.381500
187.606812
218.360443
250.343506
279.447479
300.515106
308.794769
301.451416
278.767700
244.217041
203.414764
162.381714
125.884735
96.568939
75.039551
60.634338
52.289612
49.022705
49.973724
54.140564
60.310272
67.170898
73.711975
79.478668
84.549286
89.052277
92.686340
94.353210
92.436279
85.477783
72.938660
55.647766
35.604675
15.151184
-3.818787
-20.408875
-34.518188
-46.388794
-56.157532
-63.763489
-69.205933
-72.771912
-75.004028
-76.265564
-76.186768
-73.569092
-66.834961
-54.923157
-38.073792
-18.031250
2.465759
20.647827
34.758850
44.430359
50.557739
54.660095
58.186462
61.980591
66.275635
70.841797
75.452209
80.074829
84.914673
90.257385
96.259399
102.752686
109.280090
115.081482
119.354492
121.415405
120.697510
116.932678
110.173401
100.804443
89.519714
77.078552
64.185730
51.314453
38.748138
26.740173
15.594788
5.763550
-2.415527
-8.790436
-13.564209
-17.222168
-20.347595
-23.449554
-26.781494
-30.383423
-34.067719
-37.545532
-40.566803
-43.062073
-45.169739
-47.265015
-49.697296
-52.667511
-55.986755
-59.097137
-61.308868
-62.017883
-61.151825
-59.290314
-57.539917
-57.265961
-59.553802
-64.841034
-72.741028
-82.177185
-91.836823
-100.740967
-108.539612
-115.647003
-122.996399
-131.583984
-141.958374
-153.801178
-165.792419
-175.756042
-181.259735
-180.367432
-172.370880
-158.099915
-139.607513
-119.397003
-99.532501
-81.207642
-64.651611
-49.549530
-35.480743
-22.171143
-9.537811
2.359741
13.408539
23.325623
31.716248
38.096619
42.170166
44.216370
44.615662
43.507599
40.994019
37.461670
33.675720
30.631409
29.347290
30.468628
34.225647
39.868896
45.739441
50.208069
52.433228
52.590820
51.498901
50.103882
49.040405
49.304016
50.885925
52.666687
53.399658
52.702881
50.991211
49.090149
47.786987
47.615784
51.256714
59.446167
70.052612
80.073242
87.897034
93.297546
96.625000
98.359070
98.983643
103.984375
115.354004
129.299866
140.190613
145.061157
143.832886
137.888733
129.224548
119.959412
119.909119
132.942810
153.382812
172.574280
186.209961
194.567749
199.718811
203.879761
208.847961
226.549377
261.819214
307.675598
353.070801
391.189697
419.390808
436.388794
441.701202
370.074249
212.689209
25.665802
-128.097626
-227.787933
-283.268982
-311.567139
-325.956787
-333.889374
-338.396454
-329.955811
-305.537445
-273.753601
-246.334595
-228.767731
-220.249176
-217.570465
-217.532501
-218.095901
-210.316635
-191.345596
-167.374115
-146.909164
-133.636444
-126.728836
-123.819275
-122.925781
-122.943268
-118.476883
-107.723709
-94.268364
-82.947098
-75.679260
-71.701492
-69.637886
-68.569344
-68.188698
-66.130508
-61.869087
-57.494339
-55.567009
-56.585472
-58.799377
-59.272316
-55.191635
-45.239784
-29.410461
-10.489471
6.942574
18.821472
23.712799
23.028847
19.756737
16.782928
15.705284
16.600060
18.620461
21.006813
23.514427
26.280396
29.468842
32.761414
35.471672
36.819069
36.521889
34.278305
30.508186
25.919456
21.201279
16.895737
13.252655
10.331207
8.033226
6.210205
4.691353
3.290512
1.829422
0.049225
-2.128647
-4.667969
-7.197716
-9.225067
-10.279976
-10.183975
-9.090385
-7.514465
-6.078331
-5.240623
-5.085472
-5.329239
-5.469521
-5.066483
-3.823868
-1.728806
1.057549
4.204788
7.357040
10.031288
11.714500
11.964577
10.657944
8.300819
6.016342
5.245438
7.101990
11.933212
19.109688
27.364685
35.472000
42.701797
49.156265
55.259369
61.496964
67.829102
73.875275
79.172592
83.539917
87.190941
90.462914
93.735855
96.970459
99.757988
101.426842
101.238365
98.437309
92.300560
82.752472
69.298332
52.240456
32.434875
11.248348
-9.899799
-29.722553
-47.329929
-62.138138
-73.804771
-82.282684
-87.541534
-89.820358
-89.626770
-87.769478
-85.084595
-82.207802
-79.417542
-76.510841
-73.065308
-68.543243
-62.732559
-55.886063
-48.618637
-41.705154
-35.779587
-31.157957
-27.788582
-25.581259
-24.294464
-23.762211
-23.862156
-24.394394
-25.065235
-25.395535
-24.957657
-23.230659
-19.829109
-14.671326
-8.075527
-0.642200
6.797653
13.423244
18.663147
22.290047
24.360611
25.144489
24.964745
24.224514
23.235001
22.291397
21.516823
21.031364
20.893570
21.238991
22.245789
24.096550
26.980736
30.966003
35.892746
41.178703
45.980865
49.215103
49.834953
47.559555
42.225693
34.322868
24.769081
14.673790
5.074120
-3.326317
-10.357628
-16.078705
-20.549171
-23.657036
-25.138290
-24.882080
-23.119278
-20.694206
-18.790565
-18.411278
-20.074295
-23.553757
-28.145859
-32.873222
-36.934708
-39.940338
-41.916458
-43.122528
-43.926010
-44.572601
-45.075455
-45.313599
-45.037354
-44.066330
-42.367157
-39.978790
-37.013535
-33.451370
-29.163025
-24.085297
-18.450760
-12.779556
-7.646103
-3.421173
-0.071106
2.888229
6.044617
9.570221
13.208572
16.288895
18.162445
18.583939
17.911789
16.864227
16.270065
16.772675
18.800735
22.618591
28.543732
36.854736
47.599350
60.333481
74.250366
88.363342
102.012619
115.038818
127.647812
139.935745
151.376175
160.661667
165.902924
165.273331
157.593719
142.687714
121.518005
95.953430
68.365417
41.167847
16.348846
-4.933960
-22.399536
-36.536102
-48.065674
-57.563721
-65.095978
-70.320343
-72.867889
-72.664551
-70.099518
-66.079651
-61.598755
-57.515900
-54.284454
-52.055176
-50.632477
-49.777954
-49.278625
-49.158386
-49.446991
-50.073364
-50.807465
-51.103577
-50.392517
-48.224731
-44.571136
-39.783997
-34.540955
-29.536865
-25.264130
-21.867157
-19.177399
-16.894531
-14.674713
-12.343964
-9.843292
-7.203552
-4.503265
-1.759430
0.998383
3.750427
6.456970
9.068878
11.542725
13.949615
16.439758
19.249695
22.746887
27.316772
33.353943
40.910339
49.535706
58.148987
65.118286
68.662903
67.294312
60.297607
47.727844
30.315552
9.194214
-14.157837
-37.964417
-60.256470
-79.162537
-93.449707
-102.815063
-108.021362
-110.313354
-110.923401
-110.457520
-108.916992
-105.973267
-101.404541
-95.286865
-87.941772
-79.764160
-70.997070
-61.827087
-52.518250
-43.438599
-35.036499
-27.547302
-20.916382
-14.777954
-8.765930
-2.615723
3.661377
9.823975
15.626953
20.962952
25.832520
30.278137
34.294861
37.804871
40.731262
43.097656
44.978210
46.536255
47.727295
48.438110
48.439514
47.677185
46.436646
45.395264
45.469666
47.533386
52.007446
58.592896
66.220520
73.348206
78.335693
79.970764
77.706543
71.719727
62.712036
51.648010
39.551819
27.414368
16.193665
6.711609
-0.538757
-5.436584
-8.286072
-9.687256
-10.226807
-10.261780
-9.862610
-8.924927
-7.350525
-5.155640
-2.531677
0.133728
2.364929
3.668030
3.636658
2.087524
-0.895630
-4.996948
-9.640991
-14.206543
-18.082947
-20.764343
-21.996582
-21.798523
-20.462036
-18.579773
-16.712219
-15.265625
-14.271179
-13.477966
-12.508728
-11.106018
-9.308777
-7.374939
-5.595032
-4.078979
-2.743103
-1.296631
0.539490
3.070862
6.597412
11.274719
17.004883
23.104797
28.172852
30.175049
27.065125
17.554016
1.838013
-18.224121
-39.419128
-58.270081
-72.073853
-79.614563
-81.283020
-78.553894
-73.197388
-66.718201
-60.019531
-53.526978
-47.494629
-42.165100
-37.811768
-34.654663
-32.651733
-31.533264
-30.873291
-30.425598
-30.210388
-30.388367
-31.091125
-32.177979
-33.168152
-33.505066
-32.792969
-30.997925
-28.371765
-25.283813
-21.942749
-18.347900
-14.387939
-10.090576
-5.701355
-1.511169
2.140015
5.240906
8.229248
11.724121
16.177368
21.694458
27.957336
34.483582
40.868958
46.746948
52.077881
57.004028
61.894226
67.067749
72.747803
78.944031
85.399353
91.622314
96.243286
97.753052
94.931702
87.420166
75.832153
61.589600
46.568542
32.577576
20.948059
10.958191
1.593445
-7.555969
-15.928162
-22.314941
-25.754639
-26.208069
-24.452332
-21.609253
-21.600220
-27.333618
-39.452026
-55.996887
-73.622253
-89.192139
-100.625732
-106.674255
-106.324768
-103.078796
-100.269592
-99.823120
-102.332581
-108.233582
-119.287109
-138.418335
-168.474121
-211.098328
-272.305664
-355.434570
-458.366760
-572.145691
-683.211243
-778.179321
-848.238159
-891.313049
-874.635986
-782.666565
-621.417786
-419.335449
-212.816223
-28.618713
122.040466
238.869873
326.194946
389.458679
428.371826
443.667480
439.108276
421.891479
400.341217
380.831543
366.156860
356.557404
351.050812
344.034546
331.140686
311.148621
286.560547
261.960999
241.268250
226.231354
216.647186
211.184906
205.425598
195.844406
181.300079
163.416229
145.524475
130.578018
119.988831
113.699158
110.820251
108.981674
106.157501
101.068954
93.129845
82.164337
68.099297
51.276642
32.892265
14.823257
-1.478165
-15.207329
-26.477600
-36.070236
-44.729111
-52.547379
-58.515625
-60.729095
-57.137642
-46.688423
-30.065163
-9.706047
10.880005
28.539490
41.465813
49.786995
54.953911
58.391022
60.352554
59.799011
55.170013
45.877563
33.252029
20.338669
10.490944
5.616035
5.020378
5.882927
4.538307
-1.513725
-12.333817
-25.530205
-37.537117
-45.245842
-47.350647
-44.670891
-39.372910
-33.838806
-29.619469
-27.032654
-25.401520
-23.833557
-21.868614
-19.705414
-18.134422
-17.884033
-19.264816
-21.822678
-24.569435
-26.312622
-26.373940
-24.776451
-22.316544
-20.074600
-18.902931
-18.924667
-19.667168
-20.182819
-19.710831
-17.908798
-15.068668
-11.743584
-8.449837
-5.399265
-2.169785
1.737289
6.581261
12.238045
18.111458
23.470825
27.767727
30.840992
32.889240
34.384357
35.642735
36.882824
37.992020
38.675507
38.441460
36.836712
33.395050
28.058002
21.153765
13.473248
6.084497
0.024555
-4.042061
-6.061335
-6.540066
-6.220942
-5.837961
-5.725996
-5.861649
-5.872824
-5.405718
-4.230730
-2.449848
-0.353943
1.612495
3.198734
4.335102
5.107754
5.540623
5.618851
5.215704
4.385489
3.374538
2.703827
2.873566
4.148685
6.465366
9.482101
12.703323
15.689268
18.232901
20.296116
21.942654
23.406576
24.996490
27.155447
30.158289
33.935555
38.002937
41.680492
44.388115
46.048824
47.220184
48.594601
51.179535
55.648373
61.956413
69.176453
75.686157
79.649902
79.426666
74.023849
63.278397
48.020042
29.874748
10.964951
-6.476410
-20.694481
-30.764107
-36.771248
-39.534096
-40.254509
-39.944016
-39.295433
-38.706589
-38.400627
-38.634300
-39.655136
-41.585175
-44.199043
-47.008705
-49.402687
-50.982666
-51.703125
-51.793625
-51.602020
-51.369781
-51.120834
-50.678543
-49.757462
-48.067337
-45.378464
-41.560379
-36.550385
-30.380569
-23.231445
-15.411728
-7.319870
0.645493
8.155396
14.958633
20.986969
26.423294
31.700531
37.493881
44.396866
52.634308
61.645554
70.070908
76.087616
77.923691
74.536148
65.871613
52.879471
37.063095
20.027008
3.109711
-12.689850
-26.691360
-38.381714
-47.434326
-53.775711
-57.627670
-59.435989
-59.717682
-58.921387
-57.367554
-55.271088
-52.897888
-50.560287
-48.686127
-47.593018
-47.490234
-48.365341
-49.975510
-52.009796
-54.056198
-55.757004
-56.721542
-56.568527
-54.935165
-51.618546
-46.684006
-40.460358
-33.529297
-26.505112
-19.850891
-13.720383
-8.033035
-2.463165
3.325836
9.557281
16.226791
23.058578
29.680725
35.709412
41.026749
45.860046
50.791931
56.613235
63.919479
72.841599
82.760635
92.351791
99.814423
103.320831
101.536392
93.853912
80.622299
63.026840
42.837540
22.078354
2.666916
-13.967117
-27.096573
-36.751007
-43.554123
-48.351456
-51.907104
-54.641998
-56.745071
-58.264862
-59.329956
-60.159317
-60.930679
-61.683594
-62.271515
-62.501205
-62.314117
-61.827011
-61.367264
-61.161041
-61.213089
-61.288742
-60.989014
-59.967072
-58.063965
-55.341934
-52.033005
-48.496582
-45.129700
-42.239914
-39.981827
-38.241440
-36.677170
-34.882713
-32.555443
-29.665428
-26.510368
-23.454460
-20.785194
-18.528984
-16.447144
-14.229523
-11.670723
-8.780472
-5.707291
-2.573135
0.636993
4.156944
8.308147
13.395870
19.552044
26.589424
34.068264
41.429306
48.192368
54.097206
59.212509
63.807125
68.251709
72.874603
77.932228
83.626312
90.042854
97.019058
103.991508
109.849457
113.056290
112.085922
105.919434
94.479202
78.749664
60.500168
41.757935
24.270563
9.191145
-2.981813
-12.257793
-18.908825
-23.337143
-25.964706
-27.261974
-27.746986
-27.905800
-28.115067
-28.625870
-29.498993
-30.652237
-31.986629
-33.393265
-34.871868
-36.470982
-38.240044
-40.128300
-41.922302
-43.276684
-43.817417
-43.290951
-41.645222
-39.088711
-35.941593
-32.533295
-29.060173
-25.592438
-22.090622
-18.497475
-14.800110
-10.966446
-6.953217
-2.734123
1.578941
5.775345
9.543259
12.670799
15.183250
17.403824
19.852074
23.012283
27.143005
32.036514
37.122238
41.684494
45.164993
47.454422
48.983253
50.640411
53.390236
57.911285
64.201935
71.504745
78.426231
83.272598
84.545837
81.286362
73.373489
61.391991
46.548080
30.273170
13.954903
-1.278854
-14.685722
-25.875549
-34.773079
-41.490158
-46.113541
-48.639854
-49.044548
-47.407158
-44.170364
-40.229530
-36.734749
-34.768150
-34.872040
-36.921303
-40.179100
-43.724854
-46.820442
-49.131981
-50.623169
-51.374435
-51.344398
-50.342232
-48.248604
-45.084396
-41.139816
-36.866753
-32.643723
-28.665718
-24.786102
-20.709969
-16.143974
-11.079865
-5.821648
-0.928497
3.069885
5.949692
7.986618
9.862518
12.370071
16.094315
21.152084
27.210892
33.702316
40.065491
45.973526
51.351837
56.397995
61.489075
67.114105
73.666290
81.224365
89.194855
96.303131
100.818268
101.023682
95.834854
85.168182
69.987885
51.994827
33.168762
15.319138
-0.270050
-12.901901
-22.504669
-29.409119
-34.199005
-37.453201
-39.609756
-40.930374
-41.584122
-41.735962
-41.611145
-41.468674
-41.506271
-41.772278
-42.253860
-42.875031
-43.614685
-44.466705
-45.424774
-46.412048
-47.282410
-47.821243
-47.791107
-46.974747
-45.157364
-42.293320
-38.545654
-34.293640
-30.086075
-26.355484
-23.209488
-20.357361
-17.307419
-13.613937
-9.222488
-4.522522
-0.179688
3.234802
5.506210
6.923279
8.151855
9.879684
12.635696
16.522842
21.243469
26.250519
30.969009
35.019791
38.374176
41.427704
44.849457
49.345016
55.370773
62.882797
71.285202
79.437668
85.860565
89.028259
87.729156
81.369904
70.176270
55.182343
38.001450
20.470901
4.216141
-9.650528
-20.635864
-28.756851
-34.386841
-37.947174
-39.897537
-40.624603
-40.436188
-39.690033
-38.721909
-37.801590
-37.077209
-36.552399
-36.156479
-35.812637
-35.605637
-35.719299
-36.353012
-37.561600
-39.147064
-40.722626
-41.862762
-42.291290
-41.874191
-40.650558
-38.665359
-35.909241
-32.403442
-28.229797
-23.645004
-18.973709
-14.568893
-10.585403
-7.023193
-3.671509
-0.222382
3.632843
8.082504
13.140564
18.571152
23.965836
28.900681
33.137009
36.808136
40.400238
44.587616
50.044647
57.072174
65.539474
74.797470
83.729675
90.915207
94.850159
94.298599
88.584061
77.947403
63.471497
46.827545
29.907349
14.339478
1.211884
-9.049286
-16.421356
-21.247055
-23.950333
-25.059479
-25.187576
-24.957764
-24.899994
-25.391602
-26.489609
-28.043152
-29.867126
-31.895050
-34.287338
-37.275848
-40.971436
-45.228348
-49.569778
-53.354370
-56.001358
-57.180099
-56.908783
-55.502075
-53.487457
-51.354538
-49.450180
-47.845139
-46.316422
-44.446976
-41.844177
-38.354782
-34.269409
-30.455505
-28.102524
-28.369095
-31.735413
-37.534027
-43.760651
-47.376678
-45.099915
-34.307465
-13.979935
14.894989
49.304138
84.831284
116.530319
139.984207
152.202423
152.158646
140.910355
121.076248
96.193436
69.765869
44.694992
22.865448
5.173248
-8.400604
-18.386063
-25.548416
-30.597137
-33.905823
-35.498108
-35.131134
-32.653946
-28.369080
-23.158295
-18.316910
-15.137573
-14.414490
-16.153030
-19.653702
-23.726883
-27.144669
-28.860443
-28.138733
-24.743362
-19.017441
-12.081650
-5.532059
-0.944733
0.717865
-0.325470
-2.784973
-4.754883
-4.667587
-1.930389
2.735321
7.745712
11.311630
12.258591
10.563705
7.313232
4.324203
3.416183
5.854279
11.915039
20.921524
31.450607
41.755005
50.122452
55.136017
55.905624
52.048355
43.947601
32.604309
19.540817
6.415466
-5.355301
-14.857773
-21.785721
-26.252579
-28.541214
-28.952332
-27.782791
-25.408569
-22.355865
-19.256424
-16.721619
-15.222717
-14.989410
-16.057068
-18.370453
-21.801483
-26.172638
-31.178345
-36.320618
-40.900421
-44.239807
-45.823212
-45.463318
-43.296722
-39.708862
-35.138397
-30.057892
-24.886932
-19.940033
-15.378479
-11.089600
-6.636078
-1.397705
5.237000
13.622589
23.739166
35.228790
47.543304
59.999390
71.797760
81.912384
89.089752
92.017456
89.685608
81.733368
68.709503
51.972870
33.363922
14.777466
-2.095428
-15.935944
-25.779297
-31.059357
-31.765961
-28.662598
-23.290192
-17.658844
-13.724548
-12.736023
-14.902679
-19.390350
-24.722076
-29.369049
-32.149963
-32.509735
-30.445831
-26.407410
-21.051758
-15.047119
-8.784943
-2.260864
4.893311
13.307098
23.392456
34.916290
46.953552
58.137024
67.273743
74.021729
79.177917
84.358917
91.348236
101.256287
114.111450
128.843857
143.647034
156.616852
166.104218
171.040009
170.876633
165.611557
155.701920
141.970718
125.494186
107.530869
89.357132
72.104385
56.720306
43.842804
33.793488
26.495346
21.496979
18.070755
15.085953
11.227440
5.108116
-4.547081
-18.506264
-36.674110
-57.939392
-80.293991
-101.221115
-118.256706
-129.676743
-134.934906
-134.844696
-131.491043
-127.785080
-126.616661
-130.025665
-138.538925
-151.074112
-165.450012
-179.319397
-191.108200
-200.474030
-208.161896
-215.364914
-223.063995
-231.520630
-240.196350
-248.081146
-254.025879
-257.201996
-257.065704
-253.375977
-245.986359
-234.797333
-219.961975
-202.134430
-182.658997
-163.484039
-146.783752
-134.501984
-127.879776
-127.263962
-132.075897
-140.877106
-151.528442
-161.507843
-168.309692
-169.994186
-165.663513
-155.664398
-141.291412
-124.243347
-106.011810
-87.600677
-69.587494
-52.324097
-36.146057
-21.256348
-7.626587
5.652710
19.269653
33.100342
46.483093
58.665771
69.171753
77.803833
84.821289
90.746155
96.737732
103.356873
110.218079
116.541443
121.880981
126.295105
130.169189
133.997864
138.175049
144.194214
152.313782
160.923767
167.982422
172.384521
174.265076
174.469055
174.093262
174.182373
179.331055
191.106201
206.309814
220.367432
230.881714
237.849365
242.403931
245.908569
249.501953
261.767456
285.400513
313.614014
336.760620
349.590454
351.626099
344.837524
331.981079
315.880981
311.709839
325.502197
348.509521
367.367432
375.495483
373.409058
364.656189
353.278870
343.076721
354.144958
395.250977
456.054810
519.219849
573.987488
616.259033
644.257935
657.201172
550.542358
308.111877
16.510925
-225.703552
-385.164429
-476.142212
-524.119873
-549.092346
-562.572327
-569.641296
-555.538025
-515.600220
-463.373016
-417.496063
-386.907928
-370.722443
-364.190430
-362.387665
-361.932892
-348.246429
-316.402832
-275.999146
-240.731537
-216.966492
-203.944717
-198.184219
-196.326172
-196.076660
-188.139984
-169.194336
-144.942459
-123.713654
-109.345703
-101.355896
-97.691772
-96.418976
-96.311005
-92.898224
-84.949936
-75.602417
-68.912971
-65.868904
-64.479446
-61.469009
-54.069542
-41.280457
-22.916298
-1.478569
18.545273
33.128014
40.796440
42.419998
39.829659
34.570305
27.374481
18.690475
9.294197
0.794121
-4.860550
-6.294708
-3.530273
1.923851
7.907173
12.595306
15.638855
17.486549
19.142067
21.190193
23.327072
24.729904
24.629143
23.011192
20.555786
18.308861
16.951523
16.523537
16.390701
15.687988
13.736397
10.339767
5.798782
0.604073
-4.695442
-9.639946
-13.772118
-16.604576
-17.842873
-17.388153
-15.542740
-12.839378
-9.868591
-6.942970
-4.075966
-1.062675
2.267357
5.759659
9.000336
11.482613
12.838837
13.008537
12.238976
10.893211
9.270889
7.657448
6.349396
5.757744
6.277740
8.213394
11.599594
16.284760
22.020599
28.604065
35.945877
43.959938
52.603539
61.721764
70.827332
79.304375
86.510757
91.993240
95.759163
98.270538
100.151169
101.892838
103.294250
103.319794
100.280304
92.609169
79.609299
62.079552
42.346054
22.764164
5.289867
-9.474749
-22.399719
-35.173164
-49.215141
-64.696922
-80.403648
-94.277977
-104.478333
-110.028465
-111.219780
-109.339088
-106.015137
-102.563950
-99.680565
-97.158157
-94.183716
-89.545532
-82.110344
-71.270447
-57.387020
-41.746433
-26.241722
-12.832581
-3.019669
2.572556
4.049213
2.295429
-1.392246
-5.545143
-8.816833
-10.231319
-9.355167
-6.376339
-1.953701
3.073238
7.834499
11.681133
14.127083
14.867073
13.689190
10.704189
6.357559
1.580406
-2.614880
-5.331318
-6.109398
-4.943748
-2.231342
1.478252
5.668343
9.956913
14.069561
17.868279
21.294189
24.609581
28.147896
32.277542
37.079857
42.155823
46.739372
49.879204
51.096992
50.162018
47.348625
43.424431
39.305450
35.963638
34.321526
35.221542
39.270264
46.492065
55.948448
65.729362
73.334435
76.690147
75.013313
69.404121
62.550224
57.590652
56.614136
59.561172
64.068344
66.206589
61.827591
48.042328
23.892075
-9.490906
-49.386963
-92.254913
-134.384491
-172.474350
-203.882736
-226.821274
-240.477188
-245.000015
-241.379456
-231.197998
-216.385895
-198.792770
-179.986908
-160.992584
-142.291748
-123.969650
-105.942947
-88.146881
-70.700836
-53.860580
-37.737045
-22.295563
-7.263428
7.728439
22.958740
38.462082
53.967606
69.048538
83.033813
95.162933
104.588638
110.631668
112.910110
111.756180
108.135056
103.462646
99.128922
95.940521
94.044937
93.023613
92.307671
91.473083
90.198105
88.068230
84.259399
77.630402
67.129814
52.364487
33.810738
12.835594
-8.744598
-29.200562
-47.142548
-61.637901
-72.008148
-77.845642
-79.000168
-75.613380
-68.174927
-57.548676
-44.954185
-31.774933
-19.540359
-9.527100
-2.651489
0.865387
1.396355
-0.185028
-2.753197
-5.223190
-6.747986
-6.813042
-5.412468
-2.990860
-0.370064
1.509789
1.950058
0.734123
-1.761551
-4.689514
-7.017319
-7.783852
-6.376884
-2.620964
3.196587
10.305542
17.670837
24.289970
29.593681
33.618652
37.109016
41.144348
46.530479
53.410782
60.871780
67.327782
70.794609
69.745758
63.566742
52.727119
38.515747
22.704231
7.038971
-7.063797
-18.600876
-26.955818
-31.891663
-33.498184
-32.234550
-28.879448
-24.522385
-20.430817
-17.859680
-17.660736
-20.155495
-25.010414
-31.390846
-38.216454
-44.577591
-50.073715
-54.768684
-59.043411
-63.252060
-67.369888
-71.052116
-73.775581
-75.257812
-75.418488
-74.482162
-72.652298
-70.062325
-66.663193
-62.583076
-58.169533
-53.921074
-50.211395
-46.875755
-43.097321
-37.576378
-29.126091
-17.291191
-2.671608
13.357391
29.184998
43.539944
55.963215
66.651512
76.095734
84.539444
91.604233
96.512405
98.209663
95.782082
88.797028
77.255745
61.615234
42.597824
21.178881
-1.493346
-24.007801
-44.882454
-62.748619
-76.599442
-85.980743
-91.072105
-92.618820
-91.795715
-90.021385
-88.721367
-89.205154
-92.623306
-99.717575
-110.519737
-124.043640
-138.211929
-150.083542
-156.776398
-156.242630
-148.062653
-133.498291
-114.987656
-95.267441
-76.470139
-59.677719
-45.037338
-32.228989
-21.019394
-11.330139
-3.216995
3.499847
9.229904
14.588379
20.062164
25.765015
31.402130
36.483826
40.621033
43.720764
46.074768
48.066528
49.992523
51.927887
53.798981
55.536163
57.225555
59.105774
61.313690
63.976349
66.931580
69.926941
72.633118
74.743378
75.878113
75.628143
73.576477
69.382263
63.071655
55.291870
47.137817
40.051270
35.291687
33.587646
34.892517
38.608643
44.003784
50.673950
58.580750
68.060974
79.283813
91.871094
104.708069
116.167603
124.697754
129.250305
129.633545
126.414551
120.562988
113.141174
104.931641
96.419250
87.740906
78.993835
70.282837
61.889526
54.183960
47.464111
41.868469
37.261047
33.362671
29.979736
27.003235
24.502075
22.634094
21.444885
20.825989
20.560364
20.419250
20.337952
20.339539
20.517517
20.888672
21.453491
22.220703
23.218323
24.618347
26.587524
29.277039
32.717346
36.961975
42.078186
48.222168
55.498505
63.720306
72.261810
80.051117
85.763062
88.140350
86.247711
79.874390
69.421539
55.783051
40.177124
23.822784
7.830231
-6.894592
-19.684235
-30.154907
-38.240723
-44.123047
-48.088196
-50.400787
-51.204041
-50.613861
-48.840607
-46.367798
-43.991486
-42.542114
-42.617371
-44.284393
-47.109955
-50.394989
-53.513794
-56.200989
-58.428391
-60.256882
-61.590454
-62.212021
-61.805878
-60.152039
-57.437027
-54.061096
-50.584671
-47.477859
-44.881470
-42.668884
-40.508102
-38.120209
-35.435455
-32.596695
-29.903793
-27.610306
-25.696060
-23.847687
-21.566406
-18.325096
-13.822029
-8.119148
-1.642555
4.945198
10.974487
16.036461
20.099693
23.564713
27.178261
31.738205
38.006874
46.313751
56.478622
67.694824
78.558197
87.313576
92.171265
91.844612
85.855713
74.691666
59.632805
42.545158
25.328255
9.533520
-3.787232
-14.156147
-21.590448
-26.344982
-28.811918
-29.409830
-28.611019
-26.951500
-24.976616
-23.176842
-21.864548
-21.155560
-20.948212
-21.078896
-21.486610
-22.233704
-23.450912
-25.227448
-27.379417
-29.464363
-30.783806
-30.676468
-28.632675
-24.460892
-18.408859
-11.229263
-4.292831
0.589920
1.353180
-3.589417
-14.606476
-30.480698
-48.588837
-65.686996
-79.092896
-87.548355
-91.402100
-91.955734
-90.532944
-87.788269
-83.549835
-77.212204
-68.306610
-56.927902
-43.648911
-29.220215
-14.279602
0.787109
15.684769
29.947220
42.840881
53.253662
60.012772
62.042496
58.654282
49.768524
35.923920
18.403107
-0.981140
-19.980820
-36.331543
-48.176376
-54.431915
-54.946625
-50.513779
-42.537704
-32.635162
-22.278229
-12.643906
-4.544800
1.528366
5.408432
7.241867
7.462936
6.761276
5.872330
5.401520
5.662476
6.507111
7.434845
7.797821
6.981323
4.834778
1.669266
-1.670731
-4.175461
-5.054565
-4.017822
-1.505005
1.395279
3.258820
2.687469
-1.192459
-8.454544
-18.266937
-29.009842
-38.758926
-45.715805
-48.652054
-47.219986
-41.793930
-33.407455
-23.242966
-12.468430
-2.014389
7.571777
16.067566
23.588440
30.406219
36.932617
43.476440
50.217438
57.082825
63.621857
69.150970
72.682312
73.363251
70.672394
64.716064
56.088287
45.708740
34.465332
22.979340
11.675751
0.872589
-8.999603
-17.495544
-24.142334
-28.789673
-31.559998
-32.793182
-33.034241
-32.682953
-32.117035
-31.694916
-31.708374
-32.412079
-33.886749
-35.985962
-38.330139
-40.515839
-42.121185
-42.922760
-42.796661
-41.767944
-39.955597
-37.547058
-34.790405
-31.865173
-28.939758
-25.983856
-22.955658
-19.761566
-16.370544
-12.791809
-9.054993
-5.205170
-1.292847
2.582092
6.375427
10.065094
13.712341
17.482910
21.463745
25.602478
29.693451
33.453918
36.646332
39.292633
41.696198
44.376526
47.853699
52.379761
57.838837
63.684570
69.095276
73.121765
74.906433
73.769073
69.299103
61.453552
50.597412
37.612488
23.737091
10.432556
-1.014160
-9.767761
-15.715790
-19.324127
-21.414124
-22.812927
-24.122009
-25.562317
-27.179413
-28.902863
-30.638702
-32.214630
-33.442657
-34.120636
-34.319092
-34.414307
-35.059296
-36.760345
-39.531036
-42.701416
-45.197235
-46.021423
-44.815887
-42.123444
-39.035370
-36.650909
-35.366638
-34.599274
-33.101624
-29.537720
-23.271393
-14.720764
-5.234497
3.444763
9.818726
13.339478
14.659760
15.418396
17.524994
22.357758
29.780243
37.612549
41.769012
36.947510
17.612427
-20.576874
-79.353577
-156.544800
-245.535492
-336.056519
-416.321045
-476.059845
-509.361450
-516.079224
-501.152161
-472.339233
-437.244080
-401.325714
-367.150085
-335.115723
-304.620453
-274.778900
-244.758575
-213.568024
-180.118179
-143.537888
-103.643341
-61.238396
-17.695580
25.578400
67.731461
108.753021
149.470978
191.141861
234.956451
281.387329
329.616577
377.117828
419.938599
453.978027
476.491211
487.360443
489.195343
485.864594
480.220551
472.309052
459.244995
436.901642
402.725952
357.713379
306.803101
257.007690
214.549286
182.497803
160.153412
144.113007
130.352051
116.005920
100.178223
83.480194
67.001526
51.393158
36.630005
22.319000
8.455627
-4.397644
-15.067596
-22.541809
-26.436340
-27.277832
-26.361694
-25.120026
-24.490540
-24.650360
-25.016388
-24.690979
-22.925751
-19.443390
-14.530579
-8.731140
-2.472687
4.073135
10.936310
18.026566
24.907578
30.622971
34.075012
34.366074
31.223099
25.127167
17.145004
8.496841
0.223297
-7.016205
-12.975838
-17.703812
-21.309441
-23.899246
-25.538567
-26.285660
-26.274345
-25.757336
-25.079403
-24.645096
-24.765457
-25.668364
-27.376568
-29.867558
-33.035164
-36.778366
-40.964943
-45.428173
-49.956806
-54.276356
-58.174492
-61.577576
-64.540344
-67.297928
-70.161339
-73.316147
-76.661201
-79.925972
-82.688446
-84.768196
-86.232544
-87.403191
-88.565079
-89.783768
-90.716698
-90.770447
-89.417587
-86.417694
-81.804810
-75.692642
-68.016235
-58.385956
-46.280380
-31.389420
-13.840073
5.474777
25.257126
43.940979
60.106415
72.661697
80.993546
84.997467
85.082901
82.004227
76.745728
70.510040
64.409973
59.273682
55.549927
53.125977
51.433014
49.630859
47.047928
43.414551
39.075272
34.664902
30.895706
28.112015
26.175781
24.534821
22.493790
19.528397
15.426697
10.400421
5.025116
0.052460
-3.704208
-5.759094
-6.115326
-5.398651
-4.528809
-4.432068
-5.587982
-7.857635
-10.652466
-13.202393
-15.007538
-15.879425
-15.878235
-15.066132
-13.377411
-10.632141
-6.699463
-1.667786
4.144836
10.242493
16.252563
21.931549
27.339752
32.704926
38.232697
44.074646
50.226562
56.737427
63.731750
71.424591
79.861572
88.580261
96.418610
101.638550
102.350220
97.190857
85.906311
69.504517
49.898376
29.292908
9.553650
-8.238220
-23.635132
-36.624939
-47.205078
-55.260925
-60.617859
-63.218506
-63.404053
-61.855347
-59.651672
-57.770996
-56.816223
-56.905151
-57.874390
-59.486206
-61.599854
-64.058777
-66.583252
-68.847290
-70.399597
-70.833923
-69.955383
-67.864014
-64.874512
-61.283813
-57.289429
-53.089539
-49.329651
-46.757690
-46.010925
-47.203979
-49.850098
-53.032471
-55.828918
-57.617920
-58.234863
-58.789734
-60.374084
-63.229309
-66.504944
-68.681335
-68.432617
-65.329041
-59.913147
-53.228638
-48.204163
-46.861572
-49.275330
-53.361023
-56.020142
-54.871338
-49.185059
-39.623108
-27.524658
-17.230164
-12.330200
-14.682434
-23.795715
-37.998657
-55.921692
-77.050415
-101.369568
-128.886230
-163.749634
-209.746643
-268.333801
-336.928467
-409.300476
-477.846130
-536.096985
-580.408936
-585.146423
-535.709595
-433.228027
-296.928772
-154.017944
-25.610657
79.172943
160.291443
221.425201
266.607300
295.288330
307.144226
304.137573
291.277740
274.967194
260.341644
249.852234
243.531891
240.317596
236.011139
227.308807
213.200256
195.525497
177.676285
162.587463
151.547531
144.304611
139.891220
135.361755
128.350266
118.050690
105.517029
92.940781
82.303215
74.537186
69.547401
66.590889
63.842514
59.770584
53.744499
46.291367
38.758446
32.484428
28.227036
25.982136
25.146809
24.479195
22.834518
19.659489
15.223671
10.502842
6.625771
4.388714
3.927330
4.686897
5.667881
5.873711
4.868488
2.722965
0.057808
-2.413782
-4.161734
-4.851210
-4.063984
-1.361582
3.245342
8.195768
10.090693
4.710688
-10.256178
-33.345604
-58.504295
-77.452354
-83.502533
-74.767189
-54.633076
-29.410692
-4.963618
15.403319
30.681118
40.543499
43.786076
38.868835
25.665897
7.059628
-11.342861
-23.526846
-25.877897
-19.151865
-7.251659
4.923607
13.975875
18.887936
20.506395
20.254498
19.168896
17.624800
15.738507
13.772196
12.094831
10.958715
10.559628
10.614515
10.657383
10.192591
8.960934
7.017471
4.766083
2.765038
1.452543
0.988956
1.128242
1.349142
1.105736
0.041327
-1.817162
-4.048721
-6.086720
-7.450478
-8.004601
-8.011738
-8.005604
-8.550739
-9.952354
-12.105812
-14.578125
-16.732925
-18.069569
-18.427063
-18.075554
-17.648525
-17.839851
-19.292908
-22.172195
-25.976398
-29.543335
-31.464725
-30.378918
-25.397785
-16.246887
-3.420887
11.732071
27.302765
41.100861
51.342621
57.183899
59.030594
58.273560
56.723511
55.694038
55.558029
55.889069
55.989876
55.680954
55.350822
55.734955
57.165031
59.114525
60.447304
59.896454
56.825272
51.542801
45.059746
38.693932
33.639252
29.932549
27.092461
24.085838
19.706921
12.978886
3.468029
-8.501507
-22.092873
-36.445610
-50.987228
-65.386978
-79.093704
-90.901009
-98.867447
-100.915558
-95.938843
-84.592522
-69.202652
-52.750332
-37.557961
-24.340401
-12.665131
-1.829239
8.016308
15.575359
19.296150
18.402695
13.715439
7.382977
1.780918
-1.635233
-2.814684
-2.869911
-3.082138
-4.126570
-5.736279
-6.957588
-6.807667
-4.837669
-1.512215
1.984138
4.357134
4.749372
3.300058
0.957321
-0.995306
-1.349455
0.309328
3.491024
7.284523
10.850447
13.775690
16.253555
18.591745
21.029413
23.710667
26.867092
31.007961
37.090580
46.275684
59.393524
76.643677
97.506790
119.804169
141.598083
161.492493
178.704712
192.902130
203.744980
210.474411
212.031570
207.324951
195.693909
177.300827
152.938980
123.857750
91.551430
57.664139
23.911819
-7.954956
-36.423843
-60.394287
-79.189926
-92.687241
-101.156189
-105.100800
-105.073593
-101.735275
-95.687180
-87.713348
-78.765045
-69.785950
-61.765396
-55.483170
-51.312378
-49.097870
-48.348206
-48.361298
-48.663025
-49.054626
-49.553192
-50.273621
-51.209656
-52.194305
-52.895294
-52.941467
-51.976166
-49.717041
-46.038391
-40.969971
-34.849365
-28.288483
-22.080933
-16.947449
-13.361511
-11.457245
-11.040955
-11.719940
-12.984314
-14.333282
-15.168732
-14.950073
-13.231750
-9.808228
-4.870850
1.029541
7.226501
13.230652
18.954071
24.710022
31.025024
38.256195
46.437683
55.085632
63.378052
70.219238
74.522461
75.338928
72.046936
64.533325
53.220764
39.086853
23.423645
7.684753
-6.882751
-19.281372
-28.993591
-35.918518
-40.401794
-43.035706
-44.553101
-45.647400
-46.759460
-48.088196
-49.653748
-51.363281
-53.153992
-55.002869
-56.970703
-59.022278
-61.119080
-63.201477
-65.250366
-67.289978
-69.351257
-71.527466
-73.792236
-76.065186
-78.158630
-79.843201
-80.950012
-81.402405
-81.280273
-80.712280
-79.801208
-78.400146
-76.207397
-72.754089
-67.709167
-60.908142
-52.596375
-43.223938
-33.338684
-23.399414
-13.681702
-4.317200
4.670715
13.270752
21.439331
29.168152
36.371094
43.033325
49.164795
54.817505
60.031921
64.889709
69.637695
74.567749
80.049072
86.327698
93.194458
99.904480
105.100708
107.146179
104.633728
96.849670
84.079651
67.563354
49.075134
30.509033
13.342346
-1.492981
-13.639221
-23.193237
-30.456665
-35.787781
-39.487305
-41.800110
-42.940186
-43.165833
-42.864563
-42.450378
-42.390442
-43.003723
-44.412415
-46.436340
-48.745728
-50.966858
-52.857361
-54.359436
-55.505432
-56.362427
-56.867859
-56.853394
-56.060303
-54.376282
-51.879700
-48.905823
-46.081543
-44.080627
-43.459473
-44.529480
-47.378906
-51.877197
-57.745972
-64.575684
-71.638000
-77.861450
-81.860413
-82.376465
-78.776184
-71.408325
-61.625366
-51.208679
-41.583923
-33.231140
-25.667664
-17.969604
-9.542480
-0.526550
8.294128
15.965271
22.124512
27.087585
31.756958
37.039490
43.443848
50.866516
58.618530
65.771240
71.326538
74.326599
74.042175
70.095154
62.443909
51.423767
37.603760
21.496948
3.419373
-16.437256
-37.755066
-59.786865
-81.175903
-100.076660
-114.622192
-123.522949
-126.539368
-124.563538
-119.383423
-113.118622
-107.711945
-104.533569
-104.204681
-106.609161
-111.042969
-116.465363
-121.735168
-125.902405
-128.371429
-128.922333
-127.685242
-125.006226
-121.423004
-117.437195
-113.509338
-109.847229
-106.290131
-102.382568
-97.510834
-91.172913
-83.318680
-74.405701
-65.333527
-57.203079
-50.935745
-47.028015
-45.274117
-44.597610
-43.268677
-39.146240
-30.502342
-16.665134
1.512207
21.824654
41.409477
57.919571
70.371964
79.365295
86.632240
94.010239
102.474648
111.743164
120.490585
127.215897
130.898346
131.518524
129.762558
126.549637
122.574097
118.158447
113.452667
108.691010
104.390869
101.162506
99.381226
98.857117
98.886719
98.545349
97.040710
94.184937
90.231415
85.748749
81.131287
76.250610
70.426636
62.825958
52.987000
41.257874
28.965027
17.975952
10.224670
7.203247
9.604797
17.210876
28.561096
40.838928
49.888672
51.302612
42.027649
22.240845
-3.966003
-29.523071
-46.911682
-50.949890
-40.405823
-17.805664
12.177368
44.539429
75.020264
100.215637
117.261780
123.981750
119.523804
105.421509
85.826965
66.759827
54.261902
52.451599
62.322449
81.663391
106.217224
131.212402
152.761353
168.585266
177.958984
181.104309
178.469177
170.448669
157.468384
140.467651
121.080444
101.521667
83.892517
69.615112
59.000427
51.453125
45.951355
41.556335
37.734802
34.301514
31.167480
28.194397
25.076538
21.456238
17.027100
11.696533
5.499634
-1.369080
-8.636475
-16.040588
-23.470642
-30.776489
-37.788086
-44.210144
-49.667725
-53.746521
-56.139038
-56.744812
-55.715454
-53.511780
-50.703735
-47.726257
-44.658661
-41.304260
-37.394073
-32.807281
-27.614288
-21.940704
-15.816193
-8.781189
0.150665
12.187805
28.042847
47.512878
69.373871
91.931213
113.701843
133.365997
150.471558
165.493561
179.457001
193.278992
207.073517
220.043610
230.830719
237.986832
239.163651
232.902115
219.435898
200.872559
180.240128
160.057526
141.398102
123.926056
106.630814
86.545517
61.542973
31.465755
-1.586037
-34.826878
-66.550049
-96.988708
-127.907486
-161.866180
-204.469025
-260.788269
-332.930969
-417.974640
-508.119965
-592.973145
-662.692383
-710.890625
-718.895691
-677.263489
-590.316284
-476.388184
-358.440735
-252.715149
-165.010437
-94.330582
-37.848785
6.713806
38.439301
57.079102
64.809219
66.281937
66.618423
69.024826
74.048462
80.321823
86.424286
89.691910
88.635223
83.724670
77.083984
71.226578
67.515945
65.721222
64.795883
63.928871
61.756584
57.633049
51.953178
45.830658
40.316483
35.857048
31.950180
27.864265
23.218239
17.504772
10.790073
4.228081
-0.256710
-0.972225
2.142681
6.595062
7.766289
0.867718
-16.777966
-44.133125
-75.988617
-105.286156
-125.541679
-132.940918
-126.802223
-108.760406
-81.545052
-47.826187
-12.002304
21.834305
49.762943
68.903191
78.329086
79.425880
75.177551
68.817032
62.762466
58.232452
55.587570
54.488701
54.359322
54.373947
53.658051
51.506874
47.665840
42.567841
37.028831
32.153755
28.564384
26.309158
24.857941
23.476341
21.890488
19.700180
17.178795
14.881218
13.460251
13.209183
13.954941
15.112732
15.826126
15.370621
13.335999
10.012314
6.056229
2.388306
-0.319046
-1.754181
-1.969864
-1.207642
0.277206
2.239365
4.583984
7.147064
9.791260
12.411285
14.934143
17.448334
20.013885
22.663788
25.274399
27.800278
30.202713
32.627991
35.204819
38.082336
41.348267
45.083176
49.349579
54.230423
59.781265
66.031052
72.889511
80.054459
86.971344
93.100784
97.865501
100.774071
101.416443
99.593018
95.144806
87.916748
78.241829
65.705681
50.359726
32.615410
13.310646
-6.486717
-25.615746
-43.118637
-58.287422
-70.661095
-80.022079
-86.184570
-89.060699
-88.761467
-85.638275
-80.256332
-73.295395
-65.591675
-58.010834
-51.484619
-46.735291
-44.286530
-44.143127
-45.865036
-48.496880
-50.987518
-52.382210
-52.133717
-50.128719
-46.556725
-41.728455
-36.130608
-30.118544
-24.160866
-18.586208
-13.702532
-9.658291
-6.505135
-4.071753
-2.081835
-0.269875
1.552399
3.411179
5.109108
6.360241
6.899126
6.723379
5.969173
4.985346
4.018717
3.206551
2.419039
1.515295
0.343279
-0.991173
-2.300724
-3.425587
-4.333031
-5.087864
-5.920479
-7.001144
-8.394032
-10.011055
-11.752716
-13.074715
-13.798775
-13.876579
-13.349953
-12.179226
-10.242710
-7.375916
-3.482132
1.284767
6.595081
11.853794
16.465588
20.057735
22.467598
23.743885
23.962902
23.255985
21.675514
19.244331
15.924667
11.851463
7.325134
2.776207
-1.187340
-3.980263
-5.088425
-4.260319
-1.495831
2.652382
7.220509
10.929970
12.537960
11.210148
6.775127
-0.184849
-8.509510
-16.930511
-24.304230
-29.935413
-33.576626
-35.420162
-35.803928
-35.188797
-33.971050
-32.517204
-31.088421
-29.835373
-28.768139
-27.750317
-26.616907
-25.182644
-23.488367
-21.740477
-20.311338
-19.572523
-19.669264
-20.510607
-21.680090
-22.736683
-23.207817
-22.831915
-21.530666
-19.453503
-16.836239
-13.942567
-10.921675
-7.789578
-4.428679
-0.801672
2.978191
6.588996
9.616826
11.575373
12.346247
11.977139
10.857730
9.361910
7.856619
6.526024
5.513353
5.014383
5.313717
6.781281
9.665241
13.952833
19.225729
24.731255
29.690491
33.510719
36.125610
37.947399
39.789185
42.363075
46.127487
50.972939
56.364502
61.500134
65.451065
67.425743
66.847351
63.432823
57.195126
48.504486
38.085556
26.807953
15.702110
5.635746
-2.630878
-8.766300
-12.661465
-14.514839
-14.711460
-13.737736
-12.126133
-10.366783
-8.888577
-8.045982
-8.062366
-9.026382
-10.893230
-13.477631
-16.510149
-19.829762
-23.281782
-26.793800
-30.222878
-33.422256
-36.175362
-38.209503
-39.330872
-39.495632
-38.772850
-37.394356
-35.745808
-34.188164
-33.020386
-32.283249
-31.774023
-31.218019
-30.303017
-28.843281
-26.776424
-24.033375
-20.554657
-16.229303
-11.042185
-5.136433
1.192341
7.542267
13.525646
18.919014
23.640360
27.819393
31.805847
36.045128
40.968349
46.884464
53.722347
60.966816
67.620316
72.425934
74.244438
72.288536
66.423782
57.202953
45.638863
33.053841
20.650806
9.369614
-0.228567
-7.980099
-13.895233
-18.014259
-20.395107
-21.128012
-20.469893
-18.813740
-16.759827
-14.894728
-13.693729
-13.261026
-13.451687
-13.962639
-14.517782
-15.141851
-16.074352
-17.630239
-20.014536
-23.171936
-26.725348
-30.143360
-32.945904
-34.799782
-35.584099
-35.340523
-34.258282
-32.537804
-30.436983
-28.173735
-25.941339
-23.827421
-21.763374
-19.642303
-17.360456
-14.921995
-12.482412
-10.295670
-8.548124
-7.234735
-6.172377
-4.892292
-2.915667
0.095106
4.221884
9.110855
14.164324
18.691723
22.230295
24.683264
26.355545
27.897532
30.090185
33.745579
39.342270
46.883244
55.582771
63.976303
70.198654
72.656189
70.486885
63.934654
54.164272
42.867607
31.655710
21.645678
13.445980
7.209030
2.763121
-0.268379
-2.327932
-3.820387
-5.168461
-6.618727
-8.341883
-10.452367
-13.002629
-15.915913
-18.980494
-22.009357
-24.910175
-27.756573
-30.779469
-34.153667
-37.765911
-41.266834
-44.171730
-46.073856
-46.866745
-46.695461
-45.804783
-44.399902
-42.525391
-40.129711
-37.217907
-33.904427
-30.367725
-26.848171
-23.513294
-20.435860
-17.593229
-14.931610
-12.399008
-10.007753
-7.800320
-5.831988
-4.021098
-2.154753
0.137848
3.216009
7.290361
12.299618
17.893324
23.591663
28.906759
33.567081
37.593727
41.218636
44.842880
48.914398
53.765778
59.463028
65.691406
71.671104
76.242516
78.072548
76.141495
70.053909
60.242844
47.792809
34.113297
20.629606
8.392241
-1.931375
-9.967165
-15.624596
-19.000187
-20.397776
-20.298359
-19.328915
-18.108595
-17.172600
-16.862013
-17.429831
-18.847279
-20.953184
-23.562723
-26.394951
-29.315666
-32.344490
-35.615242
-39.208664
-43.033878
-46.794968
-49.999859
-52.175064
-53.035431
-52.596138
-51.142792
-49.152847
-46.971710
-44.824764
-42.678200
-40.241074
-37.225311
-33.407089
-28.786352
-23.526245
-17.992910
-12.580368
-7.604557
-3.209381
0.753737
4.683411
9.266048
14.939169
21.821686
29.461433
36.835236
42.884624
46.976501
49.275482
50.682522
52.425674
55.325886
59.429855
63.631416
66.242180
65.503815
60.416828
51.221859
39.334114
26.916471
15.995366
7.682545
1.965731
-1.946915
-4.871250
-7.190166
-8.334839
-7.235840
-2.495712
7.273331
23.663006
48.418026
82.660034
125.459465
172.651047
216.899597
249.701736
264.600586
260.067902
240.205811
212.851868
186.213028
165.975159
154.139725
149.917099
151.315735
156.314224
162.768066
167.976761
168.572495
161.651260
146.163971
123.929779
99.102264
76.257263
58.382294
45.870575
36.837128
28.552551
18.868591
7.160889
-5.939819
-19.196869
-31.543610
-42.331879
-51.337769
-58.469910
-63.474548
-65.859131
-65.126648
-60.868408
-53.124573
-42.359314
-29.561157
-16.209167
-3.938721
5.641602
11.346558
12.669983
9.746643
3.228149
-5.979492
-16.974060
-28.784607
-40.410767
-50.754150
-58.717163
-63.504883
-64.871277
-63.356689
-60.124817
-56.608643
-53.995728
-52.844482
-53.010742
-53.820068
-54.522949
-54.683594
-54.493652
-54.620239
-55.936890
-59.077026
-64.062378
-70.306152
-76.887207
-82.902588
-87.872437
-91.741699
-94.701050
-96.979370
-98.714355
-99.971558
-100.906982
-101.704956
-102.619385
-103.692017
-104.597900
-104.717896
-103.271484
-99.584595
-93.205933
-84.005615
-72.194580
-58.311035
-43.209106
-27.922363
-13.350830
0.056641
12.559692
25.092407
38.702148
54.043335
70.737915
87.256592
101.270020
110.322388
112.633545
107.570557
95.789062
78.773804
58.380981
36.359009
14.042358
-7.513550
-27.549561
-45.484131
-60.944824
-73.840820
-84.324951
-92.635498
-98.933716
-103.196411
-105.472046
-105.907471
-104.884033
-103.064819
-101.181152
-100.000000
-100.056641
-101.561890
-104.426392
-108.384766
-112.879761
-117.033081
-119.792358
-120.168213
-117.508423
-111.785278
-103.699707
-94.492310
-85.882568
-79.169922
-74.830444
-72.499268
-71.354614
-70.716309
-70.327026
-70.355713
-70.962158
-73.068481
-76.884033
-81.782959
-86.544800
-89.816040
-90.709229
-89.045044
-85.101196
-79.103516
-73.331787
-69.328003
-67.436157
-66.712891
-65.414795
-62.136963
-56.653320
-49.954834
-43.648804
-43.080566
-52.604248
-73.972168
-105.731201
-143.871582
-183.680176
-221.856689
-257.792603
-293.663208
-338.468628
-400.465698
-483.325562
-583.527344
-690.910400
-792.730835
-878.901367
-945.538696
-962.566162
-912.615845
-791.108765
-609.903564
-393.779541
-170.666992
37.262329
216.783386
362.544373
474.923401
553.111084
599.166748
617.803467
616.014954
601.810852
582.359924
562.421692
544.415222
529.291077
513.496399
493.947632
469.200317
440.196533
409.803802
381.315125
356.983459
337.569214
322.686584
309.068359
293.879913
275.614288
254.666534
232.949890
212.765045
195.854187
183.086395
174.739838
169.333649
164.834732
158.629227
148.059250
131.123596
107.321915
78.177444
47.109055
18.546677
-4.038834
-18.746872
-25.770569
-26.722458
-23.719910
-18.590309
-12.634514
-6.861366
-2.209076
0.316010
-0.053101
-3.654083
-9.994476
-17.772133
-25.028549
-29.689575
-30.310074
-26.721718
-20.604553
-14.071411
-9.578156
-8.605637
-10.899742
-14.667168
-17.543304
-17.848030
-15.414360
-11.574295
-8.188339
-6.639656
-6.845123
-7.404228
-6.514778
-3.065193
2.717865
9.458290
15.329041
19.065552
20.373238
19.883453
18.636192
17.256790
15.774483
13.849922
11.373070
8.857841
7.461601
8.224068
11.310822
15.475929
18.226257
16.763229
9.207748
-4.480545
-22.224281
-40.483505
-55.422676
-64.079208
-65.161263
-59.239059
-48.310150
-35.135818
-22.432205
-12.242126
-5.608398
-2.578621
-2.484268
-4.233444
-6.711121
-8.995087
-10.554787
-11.380444
-11.908936
-12.869541
-14.842365
-17.877853
-21.301613
-23.979568
-24.734577
-22.926758
-18.783272
-13.199543
-7.391552
-2.421940
1.025986
2.967558
3.957607
5.123478
8.025564
14.220400
24.470728
38.149746
52.900406
65.371582
72.255539
71.872139
64.772911
53.651196
42.034855
32.862381
27.338968
24.937454
24.050636
23.189335
21.732773
20.100559
19.166645
19.612518
21.361416
23.542213
24.878895
24.291271
21.173578
15.604934
8.048903
-0.816215
-10.229915
-19.275017
-26.943253
-32.165779
-34.222115
-32.987083
-29.130873
-23.866339
-18.690437
-14.727737
-12.540751
-12.031916
-12.708401
-14.042927
-15.716114
-17.578304
-19.715982
-22.304296
-25.446491
-29.123890
-33.176094
-37.242859
-40.990513
-44.177700
-46.710358
-48.765163
-50.685291
-52.725964
-54.948555
-57.143471
-58.872314
-59.602318
-59.734344
-59.695755
-60.165741
-61.963112
-65.917992
-72.637253
-82.327888
-94.709869
-108.961090
-123.826904
-137.808716
-149.578735
-158.219284
-163.457016
-165.649521
-165.612457
-164.251251
-162.190125
-159.446915
-154.896912
-147.310181
-135.892456
-120.452942
-101.254395
-78.909607
-54.073334
-27.197388
1.352295
31.287018
61.104279
88.013275
108.960297
122.027557
127.320038
126.969086
124.166351
121.788605
122.230896
125.501282
129.587555
132.221863
132.526306
131.068115
129.085449
127.543091
126.630920
128.287354
132.225769
135.799927
136.350891
133.420349
128.245361
122.501709
117.458374
113.616516
115.993042
125.427612
137.324219
146.289856
150.468872
151.066589
150.330872
150.221985
151.910156
163.802917
187.569275
216.019897
240.319885
256.972351
267.067261
273.157898
277.512268
281.773132
297.889587
329.989990
370.610779
408.904480
438.491394
456.544861
461.170685
451.243286
360.860199
187.060455
-9.011505
-165.128998
-263.487915
-316.083008
-341.013306
-351.946564
-356.305359
-357.059357
-344.576385
-316.900909
-283.721741
-256.890228
-241.154022
-234.816193
-233.758560
-234.084213
-233.449768
-223.109711
-201.533325
-176.367035
-156.615860
-145.584503
-141.532135
-141.080139
-141.240799
-140.457642
-133.413315
-119.416168
-103.507080
-91.679230
-86.431503
-86.980934
-90.816895
-94.630585
-95.049934
-87.005165
-69.001495
-44.501930
-19.408504
1.234535
14.722847
20.891754
21.664345
19.868370
18.771507
19.605995
21.426704
22.671577
22.716866
22.166199
22.100677
23.225578
25.352104
27.503647
28.522919
27.669594
24.975250
21.190063
17.378723
14.534218
13.278763
13.717743
15.727531
18.320862
20.501701
21.340317
20.164421
16.852303
11.897705
6.286057
1.098320
-2.886276
-5.397522
-6.635506
-7.070068
-7.088745
-6.843689
-6.191689
-4.848022
-2.688904
0.163895
3.243355
6.017227
8.036125
9.159019
9.544411
9.572830
9.626007
9.897316
10.340897
10.777573
11.140541
11.625755
12.648003
14.676956
17.955795
22.438828
27.725433
33.262543
38.509918
43.162720
47.203033
50.819427
54.255188
57.696732
61.229378
64.734154
67.875397
70.143349
70.983879
69.974030
66.873741
62.167770
55.874512
48.245338
39.508049
29.678574
18.654076
6.391926
-7.096191
-21.423473
-35.978737
-49.972691
-62.467350
-72.620712
-79.824646
-83.712906
-84.144592
-81.177628
-75.212990
-67.019943
-57.818436
-48.904991
-41.346382
-35.700562
-31.919613
-29.476496
-27.753090
-26.413399
-25.424297
-24.909523
-24.875269
-25.057430
-25.103189
-24.700220
-23.608122
-21.780382
-19.234856
-16.005688
-12.174463
-7.801875
-3.181475
1.320326
5.147776
7.920314
9.309013
9.317388
8.221264
6.530234
4.941905
4.082977
4.325275
5.730320
8.158785
11.266376
14.810602
18.828852
23.462629
28.869259
34.928581
40.950195
45.897591
48.680073
48.419056
44.834774
38.256935
29.171326
18.640196
7.886913
-2.073181
-10.478451
-16.930550
-21.368835
-24.070831
-25.447132
-26.004108
-26.093029
-25.898663
-25.548599
-25.134075
-24.853161
-24.957378
-25.557159
-26.530788
-27.562416
-28.305908
-28.570492
-28.476078
-28.208797
-27.940079
-27.647285
-27.110313
-26.100311
-24.620358
-22.842598
-20.993507
-19.250679
-17.609856
-15.950970
-14.322670
-12.959782
-12.252094
-12.477341
-13.573940
-14.990562
-15.756882
-14.669884
-10.583279
-2.887829
8.259853
21.720383
35.521748
47.341354
55.136433
57.708900
54.937431
47.732769
37.522690
25.846550
13.928062
2.692509
-7.265678
-15.386541
-21.228043
-24.345968
-24.471863
-21.810293
-16.970806
-11.005178
-5.249020
-0.971054
0.998388
0.452606
-2.143555
-5.935738
-10.010614
-13.710619
-16.794304
-19.295877
-21.283102
-22.680666
-23.268307
-22.830591
-21.323271
-18.955912
-16.023087
-12.786524
-9.194010
-4.867407
0.680576
7.791368
16.385376
25.873692
35.320557
43.820648
50.785904
56.220688
60.793839
65.525177
71.595947
79.815926
90.255119
101.978630
113.122421
121.237335
123.970985
119.759003
108.292336
90.643448
68.897034
45.584816
23.059715
3.015438
-13.603344
-26.639545
-36.451786
-43.713337
-49.130917
-53.298698
-56.555611
-59.044106
-60.890129
-62.348244
-63.899811
-66.133553
-69.486023
-73.973305
-79.148064
-84.246521
-88.507462
-91.466370
-93.002136
-93.205772
-92.251564
-90.218079
-87.106415
-82.916031
-77.691254
-71.406204
-64.005508
-55.308632
-45.248604
-34.046692
-22.367233
-11.258362
-1.812019
5.245163
9.751663
12.283798
13.912537
15.802986
18.852989
23.491798
29.491669
36.199875
42.962303
49.465622
55.907799
62.989067
71.551003
82.100433
94.345802
106.993874
117.953499
124.827583
125.557457
119.060204
105.481728
86.140137
63.025036
38.443676
14.500641
-7.191380
-25.530025
-39.978210
-50.502270
-57.563076
-62.010220
-64.854950
-67.003563
-69.056808
-71.150894
-73.094238
-74.628868
-75.553558
-75.917503
-75.880325
-75.740387
-75.688019
-75.907043
-76.478233
-77.301910
-78.116493
-78.494461
-77.986427
-76.203400
-73.036499
-68.583130
-63.106243
-56.992397
-50.506016
-43.890976
-37.283112
-30.690559
-23.889582
-16.492271
-8.034900
1.737722
12.587955
23.836369
34.477402
43.634964
50.806919
55.912720
59.024437
60.145744
59.165886
55.986717
51.049992
45.415554
40.769512
38.844524
40.779011
46.707108
55.832333
66.638504
77.466759
86.864609
93.689896
97.045242
96.194511
90.575104
80.068581
65.218994
47.304375
28.122261
9.592911
-6.755653
-19.970261
-29.694405
-35.978157
-39.108215
-39.444290
-37.455971
-33.758873
-29.106598
-24.298332
-19.999893
-16.597588
-14.314003
-13.130379
-12.996086
-13.838234
-15.547569
-17.936043
-20.750198
-23.571266
-25.927063
-27.307884
-27.384384
-26.090561
-23.662857
-20.566460
-17.316422
-14.235077
-11.257744
-7.972046
-3.742889
1.973282
9.315971
17.862633
26.792770
35.218941
42.514458
48.595497
53.855217
58.968796
64.650604
71.390862
79.289169
88.182289
97.484901
106.247375
113.171272
116.798325
115.857750
109.736107
98.742828
84.058868
67.306946
50.079597
33.563896
18.434540
5.035049
-6.384216
-15.568611
-22.309967
-26.680779
-29.056137
-30.083637
-30.434944
-30.567104
-30.718201
-30.964428
-31.420876
-32.262703
-33.712048
-35.859840
-38.511215
-41.252090
-43.381855
-44.215057
-43.216900
-40.130489
-35.077858
-28.502413
-20.993149
-13.138997
-5.329229
2.296066
9.647543
16.661150
23.109846
28.701517
33.129696
36.229687
38.110523
39.134499
39.966915
41.381371
44.226795
49.203285
56.675819
66.381874
77.318840
87.863586
96.003296
99.983772
98.677673
91.749466
79.567162
62.944130
42.929375
20.627487
-2.797684
-26.086441
-47.985687
-67.478455
-83.858765
-96.984634
-107.139023
-114.702972
-120.000763
-123.165802
-124.249573
-123.341492
-120.714737
-116.842072
-112.296112
-107.564682
-102.941528
-98.438339
-93.851410
-88.886353
-83.337738
-77.116409
-70.257248
-62.770584
-54.574158
-45.537476
-35.517151
-24.550690
-12.933746
-1.288757
9.620239
19.173386
27.098221
33.686142
39.745117
46.291580
54.219925
63.726776
73.973785
83.111404
88.637466
88.268799
80.764389
66.419800
47.047272
25.450897
4.472763
-13.724228
-28.053894
-38.302551
-44.806000
-47.902069
-47.901352
-45.235214
-40.714523
-35.555450
-31.083344
-28.253113
-27.223770
-27.483459
-28.082458
-28.098068
-27.005646
-24.778320
-21.813766
-18.727661
-16.145203
-14.536896
-13.986328
-14.007111
-13.709824
-12.044174
-8.357452
-2.752167
3.820724
9.979492
14.419464
16.529388
16.576263
15.590088
15.005768
16.172958
19.895676
26.088654
33.709244
40.940216
45.700317
46.302292
41.943497
32.870361
20.323761
6.046097
-8.173691
-20.830658
-30.898468
-37.967224
-42.118942
-43.871445
-43.931274
-43.014420
-41.671570
-40.219315
-38.846085
-37.610794
-36.515030
-35.390503
-34.014145
-32.160400
-29.789932
-27.117401
-24.581680
-22.612808
-21.342438
-20.530014
-19.529694
-17.501083
-13.740189
-7.912735
-0.196701
8.781128
18.136475
26.996216
34.766006
41.355194
47.102547
52.733963
59.055687
66.624557
75.477547
84.973228
93.811295
100.337402
102.963882
100.668510
93.353828
81.899109
67.867653
52.980324
38.618408
25.630959
14.308197
4.709373
-3.161026
-9.293419
-13.682777
-16.558411
-18.399445
-19.882629
-21.570946
-23.808998
-26.577576
-29.695168
-32.905022
-36.062820
-39.169540
-42.205360
-45.131500
-47.709518
-49.569855
-50.265366
-49.459671
-47.028717
-43.110718
-38.088501
-32.372787
-26.372040
-20.278000
-14.198578
-8.119064
-2.089264
3.696274
8.962524
13.449646
17.073151
20.024612
22.747452
25.900894
30.182831
36.280823
44.535080
54.981476
67.049591
79.655762
91.207672
99.926178
104.169861
102.802963
95.548111
83.012451
66.591110
48.140152
29.632584
12.753983
-1.344025
-12.040848
-19.245270
-23.186050
-24.386734
-23.539825
-21.572403
-19.495224
-18.287094
-18.625137
-20.734070
-24.405289
-29.076782
-34.234299
-39.379639
-44.210541
-48.504059
-51.890411
-54.095276
-54.869843
-54.311554
-52.729279
-50.673325
-48.586258
-46.614227
-44.651291
-42.377716
-39.541718
-36.102173
-32.225143
-28.168686
-24.069901
-19.891937
-15.509308
-10.753143
-5.547546
0.009644
5.762711
11.522324
17.137833
22.502029
27.564789
32.358978
37.022430
41.903015
47.408920
53.952637
61.751404
70.584488
79.785797
88.197983
94.422714
97.004578
94.888809
87.615814
75.500000
59.584198
41.407898
22.676941
4.997467
-10.359589
-22.531494
-31.117798
-36.219788
-38.352600
-38.420532
-37.434326
-36.303772
-35.680084
-35.878662
-36.926819
-38.749420
-41.273376
-44.431702
-48.134552
-52.178375
-56.233124
-59.949615
-63.054718
-65.477173
-67.195618
-68.250092
-68.478607
-67.612366
-65.435364
-61.886536
-57.232605
-51.903198
-46.357849
-40.891876
-35.539398
-30.117157
-24.374268
-18.147308
-11.383240
-4.149353
3.499664
11.414215
19.446777
27.415344
35.182953
42.836945
50.682770
59.272156
68.994659
79.756989
90.690033
100.119507
106.045441
106.756622
101.406982
90.287720
74.795563
56.751129
37.961975
19.847260
3.257111
-11.273224
-23.442108
-32.985535
-39.759003
-43.845001
-45.640259
-45.796539
-45.015900
-43.826752
-42.461182
-41.019714
-39.650757
-38.822784
-39.158173
-41.261841
-45.321594
-50.808289
-56.662079
-61.564056
-64.497589
-65.073212
-63.591309
-60.702179
-57.085938
-53.067322
-48.584991
-43.454285
-37.498657
-30.709930
-23.279266
-15.384888
-7.111420
1.511627
10.356110
19.100372
27.113312
33.740723
38.645538
42.100616
44.986847
48.553680
53.833649
61.110535
69.695190
77.970673
84.037750
86.200104
83.524689
75.968018
64.198669
49.399689
33.031372
16.626312
1.637939
-10.672913
-19.467377
-24.477081
-26.039551
-25.040710
-22.608429
-19.815643
-17.503754
-16.191925
-16.063568
-17.119141
-19.212097
-22.105469
-25.505524
-29.154572
-32.804016
-36.215973
-39.097839
-41.150970
-42.091217
-41.722900
-40.021576
-37.128021
-33.240479
-28.580658
-23.366608
-17.719055
-11.753906
-5.626678
0.600769
6.873352
13.200897
19.609009
26.063293
32.430786
38.639130
44.755157
51.046112
57.922607
65.562042
73.657257
81.243774
86.874603
88.941437
86.246521
78.372040
65.882477
50.220795
33.263214
16.908813
2.620178
-8.757416
-16.985657
-22.267212
-24.986328
-25.574249
-24.453918
-22.226410
-19.665222
-17.586243
-16.724701
-17.419098
-19.565033
-22.731689
-26.400421
-30.167542
-33.857117
-37.439514
-40.862579
-44.003937
-46.550354
-48.169403
-48.606293
-47.826813
-45.969940
-43.317047
-40.102600
-36.408386
-32.096466
-26.965912
-20.889618
-13.970093
-6.576538
0.775604
7.674652
14.032043
20.192596
26.782135
34.507111
43.860809
54.798584
66.719910
78.501587
88.678284
95.709351
98.180664
95.166016
86.346313
72.304199
54.449463
34.802155
15.563019
-1.435913
-15.145874
-25.422607
-32.778992
-37.979736
-41.586792
-43.862854
-44.949402
-45.050293
-44.625671
-44.267151
-44.492859
-45.463318
-46.930084
-48.387665
-49.394409
-49.778564
-49.687042
-49.406464
-49.131104
-48.783691
-48.048553
-46.542572
-44.020630
-40.468994
-36.196716
-31.600861
-27.144409
-23.111267
-19.505096
-16.142578
-12.676605
-8.784485
-4.244507
0.916565
6.464661
12.068298
17.446045
22.581451
27.816681
33.745392
40.916687
49.674438
59.930786
71.175385
82.412262
92.278442
99.201172
101.649475
98.454865
89.218201
74.517151
55.854828
35.308746
15.081482
-3.048615
-17.958069
-29.309143
-37.254578
-42.288971
-44.958862
-45.745789
-45.133728
-43.550018
-41.479401
-39.366180
-37.635162
-36.616394
-36.428925
-37.057404
-38.428955
-40.472382
-43.153931
-46.380981
-49.988831
-53.654144
-56.978851
-59.530029
-61.033844
-61.361969
-60.569275
-58.810425
-56.325562
-53.401489
-50.209137
-46.837982
-43.170990
-38.965332
-33.919983
-27.930984
-21.133011
-13.980209
-6.978653
-0.439163
5.628754
11.495407
17.463257
23.717545
30.111374
36.231583
41.553497
45.776886
49.014206
51.824860
54.978745
59.285065
65.147934
72.483185
80.619431
88.410431
94.327499
96.746307
94.262955
86.122635
72.541672
54.765060
34.932846
15.475571
-1.461334
-14.589844
-23.635620
-29.134003
-31.990952
-33.131424
-33.305420
-33.080994
-32.993408
-33.535858
-35.139313
-38.049881
-42.232315
-47.362122
-52.972733
-58.579041
-63.826935
-68.601944
-72.929817
-76.841370
-80.306458
-83.165138
-85.207138
-86.226250
-86.124001
-84.918327
-82.819626
-80.105293
-77.073257
-73.918274
-70.663948
-67.170845
-63.137650
-58.164276
-51.822350
-43.740677
-33.740612
-21.850533
-8.332001
6.571972
22.800901
40.506458
59.890930
80.847145
102.807785
124.765305
145.641830
164.583038
181.166336
195.166855
206.398972
214.800659
220.555008
224.303818
226.802338
228.155334
227.119064
221.122955
207.129120
182.993637
148.661209
106.269318
59.492561
12.333031
-31.658518
-69.650932
-99.509323
-119.869217
-130.679016
-133.511902
-131.436127
-127.983925
-125.907997
-126.159225
-127.950790
-129.595322
-129.830490
-128.696732
-127.627441
-128.750046
-133.849701
-143.265182
-155.383698
-166.818481
-173.500824
-172.373032
-163.016083
-148.469482
-134.516846
-127.625839
-132.156158
-148.324371
-171.891907
-195.673874
-212.302490
-216.825638
-208.053528
-188.317535
-161.919159
-133.127716
-104.849701
-78.118820
-52.450333
-26.583847
0.852234
30.947922
64.426666
101.747604
143.018768
187.728119
234.241089
279.673096
320.042053
351.169678
369.999023
375.633728
369.792389
356.206909
339.402740
323.116364
309.276947
297.915283
287.798981
277.532990
266.382080
254.429504
242.302704
230.489075
218.894135
206.888748
193.510101
178.005722
159.993820
139.487350
116.726578
92.189133
66.772369
41.883545
19.303223
0.718338
-13.020020
-22.270004
-28.578506
-34.076279
-40.623047
-49.153877
-59.447227
-70.356224
-80.369049
-88.056381
-92.390411
-92.862328
-89.642609
-83.535133
-75.819283
-67.947464
-61.040550
-55.636955
-51.638481
-48.440201
-45.322937
-41.630638
-37.047668
-31.674393
-26.117874
-21.393967
-18.681107
-18.948349
-22.555115
-29.014954
-37.034683
-44.851318
-50.808258
-53.829651
-53.655701
-50.876587
-46.652893
-42.306824
-38.908447
-36.906342
-36.147675
-36.146088
-36.382812
-36.636414
-37.175659
-38.516968
-41.251648
-45.647064
-51.588562
-58.516266
-65.631348
-72.095062
-77.219147
-80.651337
-82.333466
-82.446259
-81.219452
-78.782166
-75.112030
-70.107452
-63.738800
-56.131744
-47.595612
-38.558075
-29.401611
-20.480652
-11.987610
-4.013062
3.536316
10.938293
18.665710
27.272217
37.261536
48.707581
61.072144
73.174866
83.410645
90.221436
92.443726
89.734192
82.511292
71.801514
58.969238
45.426147
32.487366
21.226990
12.426086
6.592590
3.854675
3.996277
6.525269
10.733582
15.755493
20.623291
24.421448
26.431030
26.297852
24.129272
20.380432
15.722656
10.802490
6.132629
2.036621
-1.410583
-4.223022
-6.492859
-8.263794
-9.551453
-10.294189
-10.330811
-9.498047
-7.569885
-4.282837
0.534973
6.933655
14.724304
23.427368
32.372437
40.930664
48.675598
55.672791
62.415222
69.810425
78.920959
90.617188
105.126587
121.550964
137.629456
149.864197
154.294312
147.558289
128.123779
96.961731
57.523132
15.035034
-25.009766
-58.174316
-82.104736
-96.741577
-103.857788
-106.241821
-106.722290
-107.598877
-110.262817
-115.371338
-122.979614
-132.760132
-144.119019
-156.305542
-168.645508
-180.659546
-192.230469
-203.484619
-214.495239
-224.947632
-233.911011
-239.902710
-241.144043
-236.001465
-223.345703
-202.909546
-175.441162
-142.779785
-107.658325
-73.254883
-42.519897
-17.455078
1.391113
14.993774
25.412842
35.193604
46.823120
62.439575
83.670532
111.352661
145.312988
183.715088
222.910156
257.668335
282.255737
291.946655
284.344482
260.178223
223.057861
178.321655
131.577271
87.363037
48.460083
15.909912
-10.388794
-31.128418
-47.074829
-58.851929
-67.123413
-72.687134
-76.475708
-79.567993
-82.906128
-87.091187
-92.244751
-98.061157
-103.878052
-109.043945
-113.118652
-115.999878
-117.905151
-119.265015
-120.408081
-121.394409
-121.865234
-121.178101
-118.659180
-113.863770
-106.855591
-98.257080
-89.010742
-80.074463
-71.952148
-64.565674
-57.114746
-48.425293
-37.281128
-22.859985
-5.126221
15.147339
36.280029
55.812500
70.795166
78.417969
76.819092
65.787476
47.253784
24.864380
3.076294
-14.157227
-24.481812
-27.620972
-25.135498
-19.663574
-13.949341
-9.951904
-8.505249
-9.342529
-11.611694
-14.321655
-16.810547
-18.859009
-20.619385
-22.437134
-24.626953
-27.525391
-31.452759
-36.728271
-43.475220
-51.355957
-59.455933
-66.467285
-71.099609
-72.505493
-70.595825
-65.950806
-59.464355
-51.851685
-43.400879
-33.877686
-22.883667
-10.147827
4.172974
19.601685
35.531372
51.558350
67.523804
83.258423
98.275269
111.481445
121.119141
125.183838
121.987915
110.800659
92.247314
68.240112
41.516724
14.992676
-8.868164
-28.450073
-43.124756
-53.040405
-58.835938
-61.267212
-61.028687
-58.735229
-54.989136
-50.396973
-45.564331
-40.957275
-36.904419
-33.503174
-30.758057
-28.618408
-27.148926
-26.405762
-26.484131
-27.414429
-28.987183
-30.837769
-32.456665
-33.310974
-32.914429
-30.968933
-27.390076
-22.389709
-16.311523
-9.545288
-2.406494
4.926208
12.435059
20.178772
28.267212
36.927673
46.377991
56.749451
67.897766
79.099304
89.039307
95.934937
98.155212
94.726807
85.678101
72.100647
55.773987
38.680359
22.521729
8.462402
-2.954102
-11.727539
-18.191528
-22.855713
-26.196167
-28.587219
-30.163574
-30.970032
-31.007568
-30.465332
-29.725586
-29.257812
-29.487732
-30.578552
-32.394714
-34.553711
-36.575684
-38.014526
-38.577454
-38.136963
-36.588806
-33.850098
-29.798889
-24.369690
-17.676025
-10.070984
-2.161133
5.364929
12.019836
17.710266
22.696472
27.420654
32.261536
37.408875
42.943787
48.891174
55.335266
62.194275
69.081055
75.050659
78.758423
78.880005
74.605713
66.015930
54.129211
40.606018
27.208130
15.439880
6.311218
0.322815
-2.437500
-2.189758
0.559326
5.145630
10.765381
16.501831
21.449829
24.856995
26.239502
25.515564
23.056274
19.709045
16.495056
14.309387
13.507568
13.741943
14.191345
13.955750
12.567017
10.160828
7.593628
5.906677
5.923462
7.879272
11.416199
15.761963
20.109436
23.943726
27.129028
29.844299
32.467590
35.433655
39.135803
43.852417
49.599854
55.919739
61.913696
66.277527
67.621582
64.821167
57.493713
46.127075
32.022583
16.966919
2.650269
-9.673401
-19.426331
-26.599365
-31.583557
-34.879272
-36.936707
-38.163330
-38.812927
-39.046570
-38.900574
-38.307007
-37.187134
-35.592041
-33.696411
-31.829834
-30.381165
-29.572632
-29.477722
-29.944397
-30.750366
-31.701721
-32.614685
-33.327942
-33.577698
-33.020874
-31.272461
-28.138550
-23.647156
-18.146912
-12.157837
-6.067261
0.026672
6.442078
13.768921
22.694641
33.623657
46.426147
60.179810
73.058167
82.372620
84.932129
77.740997
58.836365
28.221069
-11.792786
-56.865356
-101.623108
-141.119629
-172.089050
-193.694702
-207.230835
-215.165955
-220.038330
-223.520111
-226.242676
-228.155396
-229.147858
-229.430573
-229.502625
-229.821991
-230.332520
-230.241364
-228.133545
-222.262848
-210.986786
-193.154755
-168.200958
-136.393097
-98.757629
-57.145081
-14.020477
27.872528
66.008301
98.549072
124.513000
143.780487
156.717316
163.961060
166.169693
164.047470
158.479401
150.598389
141.616669
132.704559
124.834610
118.580101
114.237717
111.864777
111.243698
111.711594
112.071426
110.744171
106.054230
96.894478
83.075073
65.624352
46.615906
28.808096
15.138172
7.995850
8.592358
16.564281
29.979568
45.862221
61.027550
73.076294
80.937195
84.899101
86.083420
85.793610
84.937515
83.881561
82.413834
80.069534
76.307617
70.741928
63.389404
54.842010
46.399628
39.783386
36.740524
38.402161
44.836441
54.958145
66.866684
78.376816
87.639236
93.628418
96.366394
96.740280
96.214691
96.211273
97.480453
99.721252
101.507828
100.821228
95.660553
84.714401
67.796890
45.794846
20.433121
-6.186356
-31.942902
-54.975250
-73.913345
-88.083771
-97.595596
-103.282791
-106.449768
-108.615723
-111.118683
-114.899521
-120.403061
-127.556442
-135.772156
-144.176666
-151.622101
-156.907974
-158.983704
-157.086258
-150.674744
-139.520599
-123.611023
-103.238174
-79.079819
-52.208527
-24.096313
3.636780
29.492111
52.391968
71.897156
88.253433
102.256165
114.910126
127.156509
139.683945
152.840759
166.591080
180.413986
193.120972
202.914749
207.604630
205.186600
194.573532
176.073502
151.406036
123.199524
94.179367
66.429398
41.185791
19.018829
0.149368
-15.297394
-27.411774
-36.616699
-43.812439
-50.108383
-56.399261
-62.934845
-69.211456
-74.252792
-77.131226
-77.463303
-75.658386
-72.655334
-69.599854
-67.367477
-66.215775
-65.785332
-65.186111
-63.379425
-59.561241
-53.407478
-45.148735
-35.539276
-25.550217
-16.173187
-8.133873
-1.673805
3.404686
7.773346
12.383995
18.317970
26.470154
37.147682
49.729370
62.607216
73.352158
79.412781
78.944046
71.467758
58.202667
41.602306
24.665642
10.010223
-0.756420
-7.186417
-9.660465
-9.068291
-6.360229
-2.484711
1.754921
5.701778
9.002869
11.731213
14.395737
17.658484
21.822416
26.283514
29.290197
28.381519
21.281860
6.959242
-13.613703
-37.599564
-61.083397
-80.471573
-93.464066
-99.511002
-99.540932
-95.322433
-88.803726
-81.644386
-75.045670
-69.685715
-65.652931
-62.415619
-58.925610
-53.997158
-46.655396
-36.620628
-24.421871
-11.382079
0.670723
9.851986
14.541836
13.799387
7.640368
-2.883254
-15.944259
-29.449383
-41.616447
-51.387955
-58.502701
-63.273781
-66.149445
-67.347649
-66.788521
-64.344864
-60.184822
-54.999756
-50.016312
-46.465828
-45.178921
-46.049187
-48.019215
-49.458549
-48.868370
-45.502670
-39.703110
-32.781563
-26.318825
-21.389595
-17.946365
-14.714432
-9.865173
-1.745941
10.109924
24.734764
40.041176
53.838051
64.731995
72.720154
79.014328
85.321930
92.982162
102.394196
112.892014
123.188126
131.813416
137.517273
139.343231
136.630203
128.935287
116.267456
99.200851
79.050232
57.633224
37.035110
19.129623
5.246078
-4.030701
-8.865295
-10.076187
-8.992416
-7.076080
-5.713364
-5.911743
-8.040924
-11.764893
-16.224197
-20.455444
-23.657410
-25.566299
-26.374039
-26.488678
-26.262955
-25.799789
-24.886002
-23.131149
-20.031433
-15.097870
-8.093307
0.864578
11.150497
21.754059
31.528214
39.646271
46.044632
51.418457
56.991486
63.969284
72.999771
83.814438
95.248795
105.451721
112.320999
114.062637
109.594894
98.855316
82.856834
63.426666
42.769127
22.933975
5.532303
-8.535858
-18.953445
-25.948250
-30.164574
-32.450966
-33.705772
-34.674812
-35.877327
-37.356934
-38.878174
-40.045727
-40.528023
-40.215530
-39.295063
-38.144733
-37.157917
-36.624149
-36.493404
-36.366859
-35.570045
-33.407978
-29.453014
-23.748516
-16.747726
-9.145735
-1.551928
5.637566
12.360184
18.796103
25.226053
31.952114
39.246765
47.148483
55.342800
63.026791
68.926613
71.603210
69.849663
63.136292
51.745552
36.755341
19.602005
1.756866
-15.574326
-31.430695
-45.045242
-55.800064
-63.250259
-67.417480
-68.816628
-68.479576
-67.641472
-67.265381
-67.800339
-69.051315
-70.390884
-71.067932
-70.518692
-68.458572
-64.832657
-59.672653
-53.103775
-45.519669
-37.558578
-30.078735
-23.792938
-19.029099
-15.506454
-12.542236
-9.329285
-5.157242
0.365585
7.439163
16.166260
26.639206
38.856827
52.672928
67.616302
82.802765
96.960205
108.375244
115.168396
115.498474
108.119598
92.836609
70.746384
44.149780
15.936035
-11.098175
-34.951828
-54.594391
-69.822403
-80.897751
-88.140945
-91.859833
-92.403641
-90.386475
-86.657623
-82.380997
-78.648132
-76.142776
-74.988312
-74.740448
-74.623230
-73.862717
-71.967285
-68.793045
-64.568527
-59.630432
-54.249146
-48.503326
-42.308121
-35.487640
-28.006668
-20.044434
-11.967667
-4.179718
2.968597
9.387177
15.247040
21.052292
27.483444
35.191742
44.603333
55.669327
67.716476
79.419159
89.082169
94.903473
95.629837
90.825241
81.050323
67.634979
52.261017
36.463791
21.329605
7.508759
-4.614731
-14.784058
-22.718460
-28.313461
-31.738159
-33.478516
-34.303024
-35.002319
-36.179291
-38.152664
-40.900757
-44.193588
-47.661438
-50.887604
-53.510513
-55.213684
-55.850433
-55.418396
-53.991806
-51.587830
-48.126404
-43.424576
-37.245651
-29.515076
-20.328278
-10.099731
0.575439
10.874786
19.960861
27.210739
32.413879
35.923508
38.631180
41.685287
46.123611
52.567871
60.920395
70.356964
79.544266
86.865967
90.773941
90.071594
84.242889
73.624786
59.411804
43.389648
27.410706
12.993652
0.987427
-8.366379
-15.174820
-19.572769
-21.676102
-21.736526
-20.260941
-18.169113
-16.465240
-16.012466
-17.104980
-19.473206
-22.361481
-25.030624
-27.039276
-28.332870
-29.158646
-29.798203
-30.336243
-30.591843
-30.213089
-28.775070
-26.002472
-21.885178
-16.622238
-10.582382
-4.178650
2.186768
8.345398
14.319290
20.371460
26.900803
34.291931
42.756668
52.170654
62.038147
71.422699
79.024933
83.372864
83.065887
77.210800
65.801270
49.871185
31.255508
12.223816
-5.216232
-19.726517
-30.776810
-38.433395
-43.036423
-44.928497
-44.431046
-42.009705
-38.400787
-34.530136
-31.315659
-29.428207
-29.101318
-30.102325
-32.005478
-34.308502
-36.669312
-38.853302
-40.691925
-42.021057
-42.580231
-42.035614
-40.001526
-36.139801
-30.336823
-22.697174
-13.671539
-3.968170
5.724304
14.853790
23.235199
31.114349
38.991089
47.506439
57.176117
68.144531
79.960266
91.515778
101.143188
106.869751
106.961761
100.350159
87.028503
68.128906
45.659393
22.063416
-0.405426
-20.043488
-35.907471
-47.753448
-55.794830
-60.489594
-62.399719
-62.042633
-60.020447
-56.914612
-53.406525
-50.015198
-47.075378
-44.659027
-42.536621
-40.408691
-38.010223
-35.209198
-32.081665
-28.854431
-25.707001
-22.607880
-19.178040
-14.698059
-8.361389
0.346130
11.304657
23.724670
36.393127
48.267548
58.980469
69.169891
80.205322
93.544891
110.042694
129.429413
150.138611
169.458801
183.959229
190.076111
184.691132
165.866608
133.426727
89.273438
37.100067
-18.186340
-71.381531
-118.093811
-155.600586
-183.059418
-201.194397
-211.534149
-215.690002
-215.078918
-210.715729
-203.393066
-193.892792
-183.175171
-172.318085
-162.298248
-153.682007
-146.506348
-140.509460
-134.764679
-127.767639
-117.532196
-102.108093
-80.135315
-51.405945
-17.023926
20.850372
58.805359
93.733337
123.506073
147.488312
166.040771
180.020935
190.358063
198.091583
204.564178
209.839172
214.041260
217.396362
219.997131
221.066498
218.378235
208.756409
189.330688
158.858826
116.037781
62.062073
0.816742
-61.568542
-118.611053
-165.589996
-200.471344
-223.899200
-238.577332
-251.821350
-271.183746
-301.766235
-343.859985
-392.921173
-441.578491
-482.239105
-509.685913
-503.143494
-452.349976
-361.228363
-248.003540
-135.244385
-38.353455
37.875854
95.403076
137.937225
168.556305
186.742523
192.746246
189.245880
181.317322
174.218369
170.868484
171.141632
172.919540
174.104614
171.582169
164.256622
153.474854
142.460236
134.344086
130.331055
129.338852
129.142212
127.859894
123.492935
115.749741
105.981506
96.876389
91.229736
90.719742
94.970734
101.269028
105.093842
100.601898
83.395203
52.679420
12.374786
-29.904778
-65.622940
-88.426773
-96.125259
-90.761902
-77.241211
-60.739639
-44.921333
-31.278984
-19.881744
-10.580925
-3.654564
0.158173
0.384613
-2.698273
-7.854568
-13.351952
-17.422447
-19.080078
-18.351982
-16.042213
-13.270432
-10.790115
-9.013023
-7.339554
-5.171646
-2.144463
1.636238
5.637184
9.111504
11.419724
12.286308
11.877800
10.817863
9.829735
9.512550
10.068817
11.085945
11.803970
11.402168
9.467949
6.274307
2.736412
-0.060074
-1.243042
-0.519623
1.798996
5.036491
8.403297
11.251335
13.180382
13.935104
13.506699
11.944580
9.527344
6.633465
3.723553
1.298592
-0.146957
-0.184547
1.158161
3.057095
3.731892
0.940472
-7.178406
-21.054386
-39.027184
-57.778305
-72.971146
-81.245567
-81.079559
-73.344772
-60.588886
-45.910454
-31.770519
-19.396084
-8.742298
0.930447
10.256207
19.355503
27.692398
34.331490
38.491508
39.809589
38.621986
35.687073
31.787374
27.480753
23.053379
18.707878
14.769790
11.827530
10.514099
11.173420
13.553713
16.717693
19.434210
20.605944
19.926739
17.787724
15.148760
12.952303
11.710714
11.336658
11.332292
11.039087
10.040745
8.306966
6.057455
3.565804
1.026687
-1.558165
-4.199118
-6.840260
-9.338900
-11.492867
-12.944466
-13.440363
-12.902571
-11.605288
-10.105200
-9.196850
-9.719227
-12.471039
-17.962845
-26.189083
-36.606808
-48.225414
-59.800983
-70.271042
-79.003777
-84.979729
-87.777542
-87.691109
-85.396645
-81.666023
-76.983932
-71.478165
-65.102272
-57.974342
-50.515617
-43.645927
-38.340317
-35.222450
-34.304390
-35.085342
-36.707565
-38.442459
-39.762177
-40.454483
-40.534210
-40.044464
-38.923859
-37.124039
-34.779938
-32.186768
-29.743927
-27.745605
-26.095764
-24.393356
-21.879196
-17.831055
-11.807297
-4.044891
4.678253
13.251099
20.765533
26.828827
31.684326
36.083862
40.901306
46.782074
53.846893
61.668945
69.497955
76.539490
82.263916
86.576782
89.868439
92.732849
95.765350
99.144653
102.412079
104.543640
104.318085
100.649170
93.030884
81.623199
67.204041
50.918488
34.068939
17.875580
3.362366
-8.711853
-17.914093
-24.191406
-27.814972
-29.393463
-29.589691
-29.035950
-28.147064
-27.186310
-26.268677
-25.595093
-25.359558
-25.724670
-26.689026
-28.094116
-29.660889
-31.067902
-32.098663
-32.669525
-32.767090
-32.290100
-31.081055
-29.000244
-25.936340
-22.033813
-17.453552
-12.417358
-7.022949
-1.315002
4.701660
10.935486
17.161438
23.081482
28.306274
32.465332
35.342224
36.931885
37.680420
38.255371
39.474915
41.810181
45.304871
49.430908
53.454468
56.770874
59.269226
61.358398
63.702209
66.975281
71.520874
77.285706
83.782837
90.232422
95.508362
98.241821
97.124634
91.190063
80.209412
64.813354
46.483887
27.070923
8.413452
-8.108459
-21.725952
-32.228943
-39.763733
-44.604431
-46.961426
-46.982727
-44.785034
-40.644531
-35.075989
-28.904175
-23.036499
-18.350464
-15.396179
-14.319519
-14.893555
-16.717102
-19.505981
-23.105042
-27.472717
-32.454102
-37.550110
-41.996582
-44.958740
-45.943726
-45.072266
-42.996765
-40.558716
-38.360596
-36.463806
-34.508423
-32.107300
-29.162598
-26.047852
-23.414978
-21.782776
-21.241272
-21.367615
-21.385254
-20.489563
-18.179810
-14.227173
-8.600769
-1.334412
7.534241
17.977539
29.751160
42.484802
55.776184
69.194702
82.529236
95.653381
108.449036
120.583740
131.419800
139.933777
144.839966
144.841736
138.862122
126.438965
107.937500
84.806213
59.447144
34.789856
13.695679
-1.804504
-10.856567
-13.845581
-12.011353
-6.960327
-0.218384
6.976624
13.619812
18.836487
21.914062
22.377808
19.934570
14.552063
6.224670
-5.094360
-19.322693
-35.974548
-53.912048
-71.393982
-86.375916
-97.270844
-103.455841
-105.507141
-104.891449
-103.116791
-101.075623
-98.742340
-95.363617
-89.985596
-81.979736
-71.307220
-58.434937
-44.094360
-28.954651
-13.560059
1.705811
16.504089
30.496216
43.397461
54.996765
65.261902
74.392883
82.973022
91.786072
101.737915
113.453796
126.980957
141.490906
155.342957
166.424988
172.541016
171.982941
163.835693
148.239685
126.434143
100.458313
72.833008
46.101654
22.345795
2.847900
-11.923126
-22.275726
-28.930237
-32.789032
-34.789215
-35.832031
-36.613831
-37.690948
-39.349762
-41.574310
-44.117371
-46.592682
-48.588074
-49.908051
-50.586609
-50.830414
-50.898895
-50.995514
-51.013855
-50.704895
-49.669708
-47.558105
-44.215118
-39.751709
-34.475006
-28.925415
-23.646271
-19.096619
-15.534454
-12.897766
-10.764252
-8.524628
-5.568710
-1.544540
3.526688
9.386826
15.847168
22.839554
30.513641
38.992279
48.117996
57.438217
66.403687
74.466583
81.160492
85.989609
88.084595
86.263657
79.413742
67.018768
49.797852
29.670197
9.264717
-9.016998
-23.589462
-34.050819
-40.769661
-44.341782
-45.248436
-43.746368
-40.175980
-35.309303
-30.439171
-27.108036
-26.641235
-29.659172
-35.745361
-43.773296
-52.227390
-59.861748
-66.068077
-70.904541
-74.840088
-78.351883
-81.646774
-84.640160
-87.095833
-88.837128
-89.840591
-90.187592
-89.903580
-88.976334
-87.386986
-85.304474
-83.170494
-81.711021
-81.543793
-82.866936
-85.140358
-87.030045
-86.862335
-83.148682
-75.140610
-63.098766
-48.097366
-31.573036
-14.830780
1.247116
16.309128
30.217827
42.976982
54.576439
65.230850
75.468323
86.197289
98.217903
111.662262
125.546097
137.665207
145.178391
145.434967
136.802307
119.076401
93.526596
62.389053
28.373390
-5.757217
-37.395622
-64.183449
-84.251808
-96.469421
-100.744133
-98.060883
-90.278526
-79.665764
-68.397293
-58.089684
-49.664337
-43.324600
-38.807457
-35.629272
-33.330223
-31.547951
-30.074638
-28.770187
-27.535637
-26.301842
-25.053795
-23.784706
-22.547852
-21.362000
-20.122452
-18.505653
-16.107018
-12.560028
-7.730515
-1.790390
4.807907
11.430916
17.483978
22.612274
26.735275
30.047905
32.876740
35.474892
37.822601
39.649109
40.553429
40.357613
39.381378
38.538345
39.128494
42.425743
49.238800
59.653534
72.985893
87.855354
102.411736
114.513893
121.919579
122.770653
115.987045
101.718559
81.458412
57.808464
33.758980
11.940086
-5.973106
-19.510338
-29.179832
-35.953621
-40.881660
-44.742668
-48.001297
-50.933189
-53.779099
-56.792358
-60.251862
-64.270996
-68.835358
-73.807968
-79.143463
-84.872543
-91.195450
-98.248444
-105.963348
-113.886475
-121.141266
-126.649460
-129.378555
-128.652710
-124.372833
-117.023834
-107.508759
-96.870956
-85.993805
-75.306786
-64.800491
-54.140404
-42.948784
-31.019958
-18.561394
-6.161545
5.289284
14.838943
21.658775
25.310089
25.897789
24.167755
21.441406
19.371567
19.558914
23.194756
30.620338
41.371635
54.312622
68.200996
82.133400
95.910835
109.919937
124.604965
139.788177
154.136658
165.226166
170.139526
166.468079
153.262985
131.481857
103.787659
73.768326
45.047955
20.466164
1.586681
-11.327202
-19.078613
-23.070908
-24.708866
-25.109890
-24.883099
-24.283375
-23.468464
-22.792759
-22.839088
-24.242069
-27.505951
-32.839283
-40.181244
-49.298203
-59.715015
-70.701439
-81.112747
-89.534073
-94.470657
-94.979546
-91.057495
-83.745056
-74.731895
-65.758347
-57.993023
-51.734699
-46.552372
-41.650036
-36.369553
-30.455551
-24.062401
-17.580841
-11.326885
-5.476616
0.025970
5.266041
10.359791
15.286453
19.986889
24.405079
28.432133
31.923222
34.663002
36.375687
36.809372
35.842030
33.695229
31.026392
28.880951
28.293100
29.915770
33.536705
38.185143
42.358200
44.735840
44.748051
42.881245
40.560219
39.575737
41.425053
46.716629
54.887783
64.335068
72.850784
78.347092
79.374680
75.534264
67.448013
56.533157
44.477936
32.787903
22.519699
14.162289
7.721197
2.877335
-0.921314
-4.323669
-7.990650
-12.475815
-18.107723
-24.962978
-32.920204
-41.699993
-51.002480
-60.367733
-69.239861
-76.878548
-82.617264
-85.890968
-86.511078
-84.673958
-80.826385
-75.506966
-69.175430
-62.194408
-54.997112
-48.236809
-42.823742
-39.656593
-39.260281
-41.294338
-44.584194
-47.305038
-47.729122
-44.809311
-38.573929
-30.039818
-20.656723
-11.669659
-3.609447
3.780235
11.220524
19.354565
28.333790
37.699112
46.621120
54.420547
60.827530
66.206802
71.219101
76.651413
83.061203
90.616043
99.163101
108.223572
117.079117
124.631836
129.533768
130.343872
125.898888
115.698586
100.004623
79.861359
56.630222
31.826527
6.777714
-17.367371
-39.625973
-59.120331
-75.034325
-86.691956
-93.707611
-96.205597
-94.823242
-90.696884
-85.229820
-79.756393
-75.232635
-72.007690
-69.897324
-68.375252
-67.003494
-65.649109
-64.444130
-63.581909
-63.088734
-62.682468
-61.833412
-59.955647
-56.600780
-51.706787
-45.573952
-38.769135
-32.005432
-25.759983
-20.214611
-15.216345
-10.400570
-5.378366
-0.044224
5.399021
10.503626
14.851707
18.388388
21.486847
24.840042
29.147173
34.694252
41.226433
48.065010
54.462265
59.903923
64.454651
68.604752
73.152176
78.808014
86.043610
94.867188
104.756073
114.659142
123.063965
128.320969
128.963669
124.146416
113.898247
99.080307
81.146172
61.813782
42.684082
24.950706
9.415741
-3.617664
-14.180019
-22.567631
-29.156246
-34.386108
-38.641975
-42.313885
-45.719494
-49.108570
-52.574226
-55.971054
-59.000511
-61.354988
-62.880035
-63.771294
-64.420639
-65.249207
-66.412743
-67.739067
-68.793610
-69.165016
-68.645912
-67.319046
-65.427544
-63.155861
-60.462692
-57.093849
-52.766014
-47.372795
-41.095955
-34.369728
-27.676102
-21.315643
-15.259354
-9.239372
-2.836426
4.201508
11.860970
19.884552
27.822166
35.307419
42.173500
48.553825
54.820137
61.475670
68.999603
77.594185
87.016655
96.435349
104.491547
109.439110
109.681732
104.188377
92.938560
76.958694
58.063301
38.381424
19.836380
3.726532
-9.300514
-19.227188
-26.433670
-31.453430
-34.845482
-37.135895
-38.737595
-40.024628
-41.305313
-42.766579
-44.493477
-46.376228
-48.174583
-49.649635
-50.739639
-51.611374
-52.557243
-53.939293
-55.814217
-57.941505
-59.733711
-60.517769
-59.725166
-57.155807
-53.013184
-47.822189
-42.224098
-36.740044
-31.591476
-26.667328
-21.614716
-16.064590
-9.755836
-2.728325
4.737801
12.187851
19.269844
25.751762
31.734955
37.573662
43.770149
50.746964
58.635063
67.111183
75.355621
82.179787
86.140327
85.858414
80.490150
69.894852
54.926445
37.206734
18.841248
1.773338
-12.610573
-23.773506
-31.909790
-37.602631
-41.560341
-44.263290
-46.019508
-47.028999
-47.473640
-47.551964
-47.437149
-47.327324
-47.351578
-47.726555
-48.572823
-49.956360
-51.719322
-53.518616
-54.848358
-55.196724
-54.203064
-51.742737
-47.952835
-43.031708
-37.154587
-30.418129
-22.802856
-14.329887
-5.103394
4.532600
14.051361
22.842720
30.444092
36.721275
41.956757
46.806900
52.050812
58.335938
65.925133
74.544289
83.313339
90.888138
95.678978
96.133331
91.170296
80.444107
64.650597
45.396984
24.921764
5.501549
-11.103386
-24.024036
-33.290985
-39.497284
-43.396904
-45.527065
-46.175446
-45.513832
-43.819061
-41.593033
-39.449219
-37.952480
-37.405910
-37.874573
-39.122646
-40.816132
-42.515255
-43.801311
-44.309132
-43.786278
-42.180801
-39.606873
-36.319542
-32.537224
-28.406803
-23.956892
-19.152046
-13.919243
-8.122370
-1.620001
5.704140
13.727846
22.114525
30.253201
37.620354
44.025379
49.871399
56.063221
63.624817
73.205444
84.573242
96.457909
106.765388
113.146614
113.717773
107.557907
95.058891
77.708771
57.725044
37.357422
18.432035
2.054304
-11.386854
-21.927746
-29.939186
-35.838242
-40.091000
-43.169220
-45.530582
-47.583088
-49.563175
-51.582741
-53.615860
-55.629147
-57.517620
-59.230820
-60.662548
-61.766083
-62.494061
-62.855057
-62.894718
-62.584023
-61.771099
-60.122349
-57.276630
-52.950813
-47.175064
-40.335484
-33.092411
-26.098940
-19.740196
-14.041286
-8.661594
-3.109204
3.058123
10.054991
17.818878
25.973629
34.040333
41.525688
48.213387
54.191525
59.941467
66.160492
73.535583
82.455345
92.709862
103.264961
112.428246
118.096161
118.395653
112.207558
99.642960
81.965927
61.277725
39.920773
19.859030
2.387630
-11.922194
-23.054171
-31.384216
-37.472809
-41.943264
-45.423546
-48.329494
-50.955627
-53.402939
-55.807335
-58.313560
-61.197922
-64.560257
-68.340744
-72.293594
-76.091805
-79.495491
-82.407593
-84.804520
-86.570358
-87.456230
-87.125977
-85.277809
-81.903999
-77.273666
-71.882919
-66.234436
-60.731560
-55.536026
-50.674042
-46.037781
-41.534424
-37.091698
-32.641617
-28.249077
-24.064941
-20.221176
-16.816887
-13.690605
-10.471680
-6.668510
-1.929169
3.792259
10.051315
16.173248
21.563934
26.038422
29.919785
33.853973
38.414108
43.758163
49.581757
55.333557
60.553024
65.179916
69.541748
74.191147
79.643936
86.228912
94.011627
102.750122
111.791824
119.939072
125.539886
126.803894
122.394379
111.982010
96.384552
77.486862
57.531967
38.627136
22.223785
8.997757
-1.011459
-8.113358
-12.736588
-15.353439
-16.408356
-16.432938
-16.030899
-15.884583
-16.662155
-18.780045
-22.330307
-27.024048
-32.380524
-37.855896
-43.035049
-47.595612
-51.254135
-53.728790
-54.833740
-54.568588
-53.213974
-51.156128
-48.783035
-46.308273
-43.780304
-41.141022
-38.332916
-35.327286
-32.132050
-28.690048
-24.955383
-20.884430
-16.546814
-12.153870
-7.954483
-4.106827
-0.548843
2.996872
6.870193
11.380997
16.525757
22.000015
27.186371
31.463806
34.520203
36.623566
38.715393
42.120148
47.909973
56.430206
66.843658
77.327423
85.473083
89.089722
86.767670
78.334290
64.685852
47.451660
28.423004
9.252014
-8.776672
-24.683624
-37.768768
-47.575195
-54.039154
-57.509247
-58.762726
-58.801361
-58.562714
-58.599457
-59.073639
-59.737762
-60.223175
-60.152191
-59.425201
-58.178436
-56.794952
-55.694824
-55.236572
-55.472321
-56.159546
-56.794067
-56.865967
-56.079376
-54.426758
-52.103638
-49.291992
-46.048462
-42.190491
-37.504700
-31.942200
-25.602692
-18.815491
-11.904327
-5.051880
1.729218
8.392853
14.819183
20.681244
25.568970
29.159515
31.388977
32.532806
33.166992
33.949829
35.517639
38.221039
42.064331
46.628754
51.287445
55.423004
58.832153
61.794708
65.046692
69.434601
75.806122
84.296417
94.034943
103.537201
110.984680
114.636597
113.043274
105.356750
91.656982
73.286957
52.212952
30.505859
10.038971
-7.812836
-22.384125
-33.755920
-42.513458
-49.252625
-53.593323
-55.126160
-53.783997
-49.887604
-43.925659
-36.639343
-28.950256
-21.576477
-14.687592
-6.317993
4.318237
15.741028
25.449005
31.809235
34.416351
33.931366
31.570618
28.678925
29.498657
35.069336
42.077148
46.302673
46.156982
42.593536
37.609344
33.013245
29.859192
33.707153
45.662872
60.817169
73.342651
81.459259
86.831665
92.005432
99.035767
109.215088
130.486908
165.606140
208.953979
251.854950
288.231995
314.280029
327.196014
325.583862
265.943909
146.430756
10.848328
-95.538757
-159.951340
-191.836105
-205.122513
-210.101303
-211.942657
-212.143707
-203.738342
-184.977554
-162.610840
-145.259354
-136.414276
-134.675323
-136.712830
-139.330612
-140.598587
-134.643936
-120.533203
-103.912544
-91.462692
-85.658546
-85.098907
-87.045746
-89.059967
-89.824959
-85.790634
-76.623253
-66.074654
-58.592850
-56.058334
-57.918907
-62.297455
-66.721893
-68.592575
-64.115997
-51.912971
-34.168495
-15.048996
1.608452
13.431488
19.834312
21.852875
21.437737
20.990463
21.628540
22.820145
23.354706
22.565323
20.671661
18.480812
16.892822
16.397079
16.873604
17.649765
17.894867
16.953423
14.819313
12.048347
9.615814
8.336906
8.470993
9.755302
11.110596
11.748688
11.378983
10.335457
9.242531
8.671455
8.819290
9.611275
10.785706
12.007843
12.921509
12.964371
11.449821
7.740585
1.798698
-5.701286
-13.382439
-19.691513
-23.548111
-24.608162
-23.348282
-20.624367
-17.221489
-13.614204
-9.955757
-6.391899
-3.082108
-0.356773
1.649010
3.054070
4.191513
5.346092
6.569237
7.570267
7.949577
7.552345
6.577797
5.630959
5.271736
5.761604
7.116516
9.187790
11.996178
15.692841
20.417213
25.972282
31.769234
37.036156
41.162857
44.206100
46.755646
49.642227
53.473145
58.328102
63.820869
69.335190
74.383400
78.758430
82.729500
86.701508
90.938148
95.294655
99.140770
101.412292
100.877968
96.982941
89.035500
77.310333
62.652431
46.222294
29.025883
11.722378
-5.417948
-22.491428
-39.575897
-56.590515
-72.994049
-87.941498
-100.459633
-109.686707
-115.121605
-116.622467
-114.465111
-109.277756
-102.041809
-93.816017
-85.592331
-78.065498
-71.374359
-65.304161
-59.350853
-53.259521
-47.156563
-41.573338
-37.016926
-33.671932
-31.210152
-29.004162
-26.467766
-23.413162
-20.031116
-16.631828
-13.382401
-10.149563
-6.406654
-1.603458
4.590797
12.069649
20.202095
28.148033
35.092758
40.583931
44.433136
46.820694
48.095558
48.462799
47.877907
46.099876
42.950089
38.480331
33.243370
27.913345
23.340317
20.173409
18.624458
18.502502
19.461037
20.972748
22.520256
24.626991
27.113472
29.469032
31.155396
31.912331
32.080360
32.465714
33.974556
37.034973
41.245705
45.120422
46.863144
45.036316
39.136810
29.817795
18.633850
7.486374
-1.851517
-8.195633
-11.232101
-11.398682
-9.702927
-7.560089
-6.329987
-7.040909
-10.149567
-15.533585
-22.842590
-32.253204
-44.617447
-61.623688
-85.440491
-118.026001
-160.102798
-210.358490
-264.981384
-318.007874
-362.569366
-392.556580
-404.523193
-398.697723
-378.733948
-350.424255
-319.722626
-291.137604
-266.995209
-247.797058
-233.031494
-221.981552
-213.973312
-208.274460
-203.778198
-199.105377
-192.919006
-184.575211
-174.303223
-163.077042
-152.033127
-141.911407
-132.607941
-123.294250
-112.864761
-100.508026
-86.125549
-70.406433
-54.479858
-39.322266
-25.303223
-11.958954
1.704407
16.794464
33.966217
53.105652
73.531250
94.395325
115.209656
136.229004
158.406311
182.986694
210.877441
242.217590
276.196350
311.481506
346.793579
381.252441
414.889832
448.500305
483.509888
521.604858
564.309998
612.131042
663.717834
714.980164
759.287964
788.851562
796.979004
780.595276
741.368713
685.319031
620.535095
554.505981
492.108215
435.099426
383.115601
335.023987
289.972839
247.769043
208.419189
171.705017
136.913147
103.176453
69.792603
36.536194
3.576477
-28.644073
-59.623474
-89.018799
-116.798187
-143.186890
-168.552246
-193.394104
-218.105682
-243.036728
-268.591614
-295.391724
-324.326599
-356.055054
-390.230408
-424.520905
-454.689453
-475.588379
-482.891510
-474.950043
-453.599121
-423.594971
-390.634521
-359.285309
-331.681885
-307.641541
-285.864288
-265.170654
-245.381821
-226.971069
-210.287338
-195.087555
-180.338120
-164.950409
-148.376495
-130.981583
-113.966156
-98.886246
-86.921707
-78.391327
-72.754440
-68.744705
-65.010040
-60.422104
-54.396057
-46.985382
-38.921509
-31.234879
-24.817612
-20.166351
-17.155762
-15.068481
-12.998810
-10.289780
-6.827148
-2.981689
0.643860
3.600510
5.780365
7.553833
9.282394
11.151962
13.057495
14.609268
15.516647
15.721283
15.438957
14.994148
14.714798
14.697029
14.827400
14.908272
14.816978
14.714943
14.980812
16.042439
18.112942
21.066055
24.371601
27.270428
29.242161
30.152428
30.370268
30.573765
31.350962
33.023438
35.464428
38.166813
40.489834
41.928471
42.030170
40.537354
37.301254
32.281750
25.677189
18.053997
10.237862
3.180439
-2.315189
-5.816940
-7.470306
-7.707710
-7.041885
-5.820953
-4.258179
-2.564507
-1.044731
-0.147324
-0.202911
-1.307098
-3.153877
-5.259537
-7.080322
-8.339134
-9.160408
-9.657997
-9.946533
-9.827484
-8.928650
-6.929398
-3.781342
0.259155
4.749619
9.070007
12.834396
15.838593
18.019272
19.426437
20.209488
20.516800
20.344009
19.771881
18.686371
17.057465
14.889526
12.341171
9.611176
6.889725
4.255676
1.716568
-0.628922
-2.505127
-3.493011
-3.281479
-1.730667
0.897995
3.985596
6.796310
8.644714
9.225037
8.658951
7.446594
6.212936
5.600433
6.157349
8.150909
11.552002
15.940979
20.644501
24.600281
26.825256
26.753754
24.291107
20.095551
15.272003
10.969727
7.994019
6.721863
6.902740
8.016876
9.490509
10.818756
11.716431
12.213806
12.432648
12.490143
12.478699
12.248108
11.604004
10.478241
8.947418
7.237549
5.608154
4.139313
2.651794
0.926453
-1.228699
-3.843506
-6.695831
-9.574799
-12.225403
-14.472809
-16.222656
-17.393524
-17.916229
-17.952911
-17.610229
-16.976837
-15.958954
-14.366760
-11.914337
-8.626587
-4.787720
-0.937012
2.339447
4.706573
6.166595
6.933380
7.230377
7.357269
7.399689
7.635315
8.314392
9.623108
11.631744
14.194275
16.950348
19.533142
21.848602
24.067749
26.660065
30.069061
34.480316
39.674347
45.048767
49.551849
52.169403
52.043762
48.755493
42.412384
33.831635
24.075836
14.283173
5.385162
-2.021301
-7.657166
-11.432220
-13.568848
-14.456177
-14.485657
-14.142273
-13.699432
-13.344604
-13.025726
-12.590881
-11.849670
-10.646179
-8.810699
-6.172485
-2.741211
1.338684
5.663605
9.699860
13.048035
15.622589
17.692780
19.843689
22.569458
26.072815
30.169983
34.421814
38.298950
41.475739
43.997650
46.174774
48.398102
51.001251
54.051544
57.330414
60.529449
63.452179
66.291534
69.579193
74.159668
80.660400
89.294800
99.575989
110.534576
120.913422
129.455475
135.082382
136.765030
133.786621
125.718506
112.820038
96.249359
77.716309
59.019669
41.218231
24.238617
7.102554
-11.345734
-31.695145
-53.478485
-75.467972
-96.321564
-115.127304
-131.475754
-145.180664
-155.730072
-162.201691
-163.727783
-160.092529
-152.115479
-141.544601
-130.208252
-119.232773
-108.530724
-97.123932
-83.953613
-68.632828
-51.797108
-34.864323
-19.505127
-6.878498
2.661853
9.457127
14.308043
17.932528
20.821953
23.162460
24.979618
26.200214
26.751707
26.593061
25.643366
23.998737
21.816341
19.421494
17.151737
15.254314
13.868774
13.004211
12.524487
12.291580
12.183960
11.956909
11.332794
10.020859
7.828568
4.817009
1.317360
-2.144798
-5.067551
-7.168587
-8.363266
-8.657234
-8.035751
-6.531319
-4.215485
-1.118614
2.679260
7.072815
